sub_f_005.acq
1 msec/sample
15 channels
Corr Raw
mV
Zyg Raw
mV
Lev Raw
Volts
Digital input
Volts
Digital input
Volts
Digital input
Volts
Digital input
Volts
Digital input
Volts
Digital input
Volts
Digital input
Volts
Digital input
Volts
Corr Processed
Volts
Zyg Processed
Volts
Lev Processed
Volts
Marker
Volts
CH1,CH2,CH3,CH28,CH29,CH30,CH31,CH32,CH33,CH34,CH35,CH40,CH41,CH42,CH43,
2054992,2054992,2054992,2054992,2054992,2054992,2054992,2054992,2054992,2054992,2054992,2054992,2054992,2054992,2054992,
-0.00384521,-0.0012207,0.000610352,0,0,0,0,0,0,0,0,4.8883,1.02357,0.135157,0,
-0.0043335,0,0.00305176,0,0,0,0,0,0,0,0,4.69164,1.02662,0.126583,0,
-0.0067749,-0.000671387,-0.00488281,0,0,0,0,0,0,0,0,4.55239,0.99988,0.124935,0,
-0.00469971,-0.0010376,0.000610352,0,0,0,0,0,0,0,0,4.53008,1.00154,0.126477,0,
0.000793457,-0.00274658,0.00518799,0,0,0,0,0,0,0,0,4.5437,1.04524,0.132626,0,
0.00500488,-0.00421143,0.0158691,0,0,0,0,0,0,0,0,4.41476,1.02011,0.133992,0,
0.00158691,-0.000427246,0.027771,0,0,0,0,0,0,0,0,4.22648,0.993257,0.11999,0,
0.00274658,0.0022583,0.00274658,0,0,0,0,0,0,0,0,4.19097,0.969408,0.108434,0,
0.0108643,0.00299072,-0.0219727,0,0,0,0,0,0,0,0,4.16689,0.940262,0.0981047,0,
0.00616455,0.00134277,-0.0177002,0,0,0,0,0,0,0,0,4.12181,0.884872,0.0935788,0,
0.00616455,-0.000915527,-0.0286865,0,0,0,0,0,0,0,0,4.16025,0.857338,0.0938076,0,
0.00469971,-0.00219727,-0.0308228,0,0,0,0,0,0,0,0,4.0856,0.859631,0.0913153,0,
-0.000854492,-0.00115967,-0.0228882,0,0,0,0,0,0,0,0,4.14858,0.836272,0.0852634,0,
-0.00610352,-0.000549316,-0.0219727,0,0,0,0,0,0,0,0,4.13745,0.841099,0.0803768,0,
-0.00268555,0,-0.012207,0,0,0,0,0,0,0,0,4.19371,0.902071,0.0782378,0,
-0.00292969,0.000793457,0.0186157,0,0,0,0,0,0,0,0,4.11932,0.937924,0.0774697,0,
-0.00286865,0.0010376,0.0378418,0,0,0,0,0,0,0,0,4.13064,0.838095,0.0715346,0,
-0.00292969,-0.000244141,0.0341797,0,0,0,0,0,0,0,0,4.11445,0.781999,0.0814156,0,
-0.00250244,-0.000549316,0.0170898,0,0,0,0,0,0,0,0,4.05917,0.760876,0.0811643,0,
-0.00341797,-0.00476074,0.0100708,0,0,0,0,0,0,0,0,4.02299,0.793611,0.0819647,0,
-0.00231934,-0.00683594,0.00396729,0,0,0,0,0,0,0,0,4.17424,0.805062,0.0753767,0,
-0.00274658,-0.00701904,-0.00366211,0,0,0,0,0,0,0,0,3.99231,0.722374,0.0692411,0,
-0.00415039,-0.00756836,-0.00640869,0,0,0,0,0,0,0,0,3.96546,0.698937,0.067184,0,
-0.00250244,-0.00811768,-0.0146484,0,0,0,0,0,0,0,0,3.98429,0.654312,0.069741,0,
0.00128174,-0.00567627,-0.0125122,0,0,0,0,0,0,0,0,3.79089,0.617045,0.0639223,0,
0.00518799,-0.00390625,-0.00915527,0,0,0,0,0,0,0,0,3.51053,0.652429,0.0644402,0,
6.10352E-05,-0.00469971,-0.00823975,0,0,0,0,0,0,0,0,3.25892,0.701696,0.0663563,0,
-0.00665283,-0.00622559,-0.0125122,0,0,0,0,0,0,0,0,3.23356,0.67457,0.0655721,0,
-0.00561523,-0.00671387,-0.015564,0,0,0,0,0,0,0,0,3.18865,0.708141,0.065909,0,
-0.00286865,-0.00543213,-0.0167847,0,0,0,0,0,0,0,0,2.88575,0.743995,0.06589,0,
-0.00134277,-0.00421143,-0.0128174,0,0,0,0,0,0,0,0,2.50518,0.7912,0.0639647,0,
0.000610352,-0.00372314,-0.0106812,0,0,0,0,0,0,0,0,2.40589,0.796927,0.0697162,0,
0.00817871,-0.00378418,-0.00244141,0,0,0,0,0,0,0,0,2.5623,0.831734,0.0686569,0,
0.0124512,-0.00219727,-0.00457764,0,0,0,0,0,0,0,0,2.72108,0.867873,0.0711733,0,
0.0057373,-0.00384521,-0.00732422,0,0,0,0,0,0,0,0,2.54748,0.875358,0.0745171,0,
0.00140381,-0.00274658,-0.00366211,0,0,0,0,0,0,0,0,2.32792,0.925048,0.0758845,0,
0.00170898,-0.0012207,0.00488281,0,0,0,0,0,0,0,0,2.31708,0.999217,0.0748458,0,
-0.000549316,0.00183105,0.0131226,0,0,0,0,0,0,0,0,2.32412,1.00105,0.0717547,0,
6.10352E-05,0.00109863,0.00793457,0,0,0,0,0,0,0,0,2.42792,0.932207,0.0776569,0,
0.00567627,-0.000366211,0.00183105,0,0,0,0,0,0,0,0,2.52208,0.917615,0.0797413,0,
0.000610352,-0.00134277,0.000305176,0,0,0,0,0,0,0,0,2.61277,0.920763,0.0805064,0,
-0.00390625,0.00134277,0.0140381,0,0,0,0,0,0,0,0,2.98837,0.953333,0.081511,0,
-0.00830078,0.00280762,0.0170898,0,0,0,0,0,0,0,0,3.30702,0.952931,0.0813592,0,
-0.00701904,0.00164795,0.0231934,0,0,0,0,0,0,0,0,3.39612,1.00008,0.0805719,0,
-0.00421143,0.00201416,-0.00793457,0,0,0,0,0,0,0,0,3.45475,1.13896,0.0865932,0,
0.00805664,0.000915527,-0.0357056,0,0,0,0,0,0,0,0,3.54684,1.1339,0.0998906,0,
0.00817871,0.00390625,-0.0228882,0,0,0,0,0,0,0,0,3.67865,1.09172,0.105796,0,
0.00219727,0.003479,-0.00274658,0,0,0,0,0,0,0,0,3.91684,1.14077,0.104793,0,
-0.00732422,0.00384521,0.0164795,0,0,0,0,0,0,0,0,3.9844,1.15676,0.104432,0,
-0.00384521,0.00372314,0.0219727,0,0,0,0,0,0,0,0,4.13907,1.17072,0.117472,0,
-0.00335693,0.00341797,0.0164795,0,0,0,0,0,0,0,0,4.25504,1.13249,0.131444,0,
-0.0032959,0.00250244,0.0149536,0,0,0,0,0,0,0,0,4.21256,1.11463,0.14373,0,
-0.00390625,0,0.0164795,0,0,0,0,0,0,0,0,4.27369,1.11572,0.156089,0,
-0.000305176,-0.000976562,0.0183105,0,0,0,0,0,0,0,0,4.21452,1.07011,0.162878,0,
0.0043335,-0.00213623,0.0125122,0,0,0,0,0,0,0,0,4.27818,1.04104,0.160737,0,
0.0133057,-0.00524902,-0.00488281,0,0,0,0,0,0,0,0,4.2534,1.01009,0.170432,0,
0.0142212,-0.00543213,-0.0189209,0,0,0,0,0,0,0,0,4.25578,0.975845,0.186133,0,
0.00567627,-0.00500488,-0.0149536,0,0,0,0,0,0,0,0,4.2703,1.00954,0.188199,0,
-0.000610352,-0.00518799,-0.0112915,0,0,0,0,0,0,0,0,4.15625,1.00924,0.189469,0,
-0.00408936,-0.00726318,-0.0289917,0,0,0,0,0,0,0,0,4.03097,1.01178,0.188411,0,
-0.00720215,-0.00720215,-0.0286865,0,0,0,0,0,0,0,0,3.80756,1.07463,0.18947,0,
-0.0101929,-0.00732422,-0.0268555,0,0,0,0,0,0,0,0,3.4834,1.11427,0.191099,0,
-0.00982666,-0.00592041,-0.0299072,0,0,0,0,0,0,0,0,3.26569,1.20498,0.190525,0,
-0.00708008,-0.00762939,-0.0189209,0,0,0,0,0,0,0,0,3.30471,1.15613,0.185571,0,
-0.0090332,-0.00622559,-0.0106812,0,0,0,0,0,0,0,0,3.41086,1.09274,0.185916,0,
-0.00561523,-0.00592041,-0.00427246,0,0,0,0,0,0,0,0,3.48276,1.09906,0.179708,0,
0.00219727,-0.00488281,-0.00946045,0,0,0,0,0,0,0,0,3.29304,1.10555,0.180883,0,
0.0102539,-0.00231934,-0.0119019,0,0,0,0,0,0,0,0,3.06059,1.11036,0.183761,0,
0.0132446,-0.00134277,-0.0140381,0,0,0,0,0,0,0,0,2.90876,1.04698,0.18566,0,
0.00567627,-0.00292969,-0.0115967,0,0,0,0,0,0,0,0,2.80675,1.02462,0.175772,0,
0.00842285,-0.00360107,-0.00427246,0,0,0,0,0,0,0,0,2.85347,1.08403,0.165081,0,
0.00744629,-0.00231934,0.000305176,0,0,0,0,0,0,0,0,2.76427,1.12885,0.155155,0,
-0.000732422,-0.00152588,0.00732422,0,0,0,0,0,0,0,0,2.70735,1.14912,0.152119,0,
-0.00439453,-0.000793457,0.010376,0,0,0,0,0,0,0,0,2.51214,1.15361,0.150423,0,
-0.00146484,-0.000915527,0.00457764,0,0,0,0,0,0,0,0,2.35395,1.1364,0.148958,0,
-0.00305176,-0.00134277,0.00396729,0,0,0,0,0,0,0,0,2.33843,1.11642,0.143052,0,
-0.0020752,0.000732422,0.0106812,0,0,0,0,0,0,0,0,2.22151,1.05883,0.132099,0,
0.000854492,0.00354004,0.0119019,0,0,0,0,0,0,0,0,2.18614,1.0397,0.125854,0,
0.00750732,0.003479,0.00976562,0,0,0,0,0,0,0,0,2.30977,1.03016,0.116214,0,
0.00427246,0.00390625,0.00305176,0,0,0,0,0,0,0,0,2.28527,1.02455,0.112828,0,
-0.00177002,0.00164795,0.00549316,0,0,0,0,0,0,0,0,2.24755,0.930048,0.116176,0,
-0.00317383,0.00164795,0.00488281,0,0,0,0,0,0,0,0,2.26893,0.869662,0.121159,0,
-0.0065918,0.00146484,0.000915527,0,0,0,0,0,0,0,0,2.27653,0.784561,0.134273,0,
-0.00445557,0.000732422,-0.017395,0,0,0,0,0,0,0,0,2.3021,0.775036,0.134129,0,
-0.00134277,0.00158691,-0.0317383,0,0,0,0,0,0,0,0,2.16927,0.770166,0.143265,0,
-0.00146484,-6.10352E-05,-0.0286865,0,0,0,0,0,0,0,0,2.15704,0.726633,0.15029,0,
0.00292969,-0.00146484,-0.0189209,0,0,0,0,0,0,0,0,2.36412,0.721862,0.1551,0,
0.00360107,-0.00152588,0.00671387,0,0,0,0,0,0,0,0,2.21013,0.708878,0.152846,0,
0.00256348,-0.00115967,0.020752,0,0,0,0,0,0,0,0,2.09102,0.735104,0.153969,0,
0.00164795,6.10352E-05,0.012207,0,0,0,0,0,0,0,0,1.9596,0.756278,0.159387,0,
0.00152588,0.00213623,0.0177002,0,0,0,0,0,0,0,0,1.8248,0.755297,0.16487,0,
0.00164795,0.00201416,0.0186157,0,0,0,0,0,0,0,0,2.08942,0.737675,0.166196,0,
0.00244141,0.000183105,0.00946045,0,0,0,0,0,0,0,0,2.10031,0.694555,0.170102,0,
0.00244141,-0.00286865,0.0140381,0,0,0,0,0,0,0,0,2.10632,0.69926,0.176129,0,
0.00280762,-0.00335693,0.0170898,0,0,0,0,0,0,0,0,2.34475,0.706661,0.178932,0,
0.00390625,-0.00390625,0.0149536,0,0,0,0,0,0,0,0,2.6582,0.701307,0.177906,0,
0.00445557,-0.00341797,-0.00305176,0,0,0,0,0,0,0,0,2.93364,0.780496,0.181471,0,
0.00408936,-0.003479,-0.0228882,0,0,0,0,0,0,0,0,3.08823,0.788843,0.183799,0,
0.000488281,-0.0045166,-0.0256348,0,0,0,0,0,0,0,0,2.99268,0.819885,0.190418,0,
0.000366211,-0.00628662,-0.0177002,0,0,0,0,0,0,0,0,3.08915,0.797938,0.194306,0,
0.00219727,-0.00567627,0.00274658,0,0,0,0,0,0,0,0,3.24007,0.815897,0.197991,0,
0.0020752,-0.00476074,0.0152588,0,0,0,0,0,0,0,0,3.24533,0.803234,0.202244,0,
0.00341797,-0.00292969,0.00701904,0,0,0,0,0,0,0,0,3.19102,0.798082,0.197737,0,
0.00567627,-0.00164795,-0.000305176,0,0,0,0,0,0,0,0,3.23413,0.823797,0.199082,0,
0.00836182,-0.000183105,-0.00793457,0,0,0,0,0,0,0,0,3.54291,0.762927,0.198487,0,
-0.00012207,-0.000915527,-0.00183105,0,0,0,0,0,0,0,0,3.63156,0.760762,0.192261,0,
-0.00421143,-0.000610352,-0.00213623,0,0,0,0,0,0,0,0,3.49067,0.804304,0.188095,0,
-0.00280762,-0.0012207,-0.00579834,0,0,0,0,0,0,0,0,3.81876,0.819795,0.188034,0,
0.000366211,-0.000488281,-0.00457764,0,0,0,0,0,0,0,0,4.02398,0.778961,0.186396,0,
0.013916,0.000793457,-0.00274658,0,0,0,0,0,0,0,0,4.28393,0.747639,0.180501,0,
0.00952148,0.000854492,0.00579834,0,0,0,0,0,0,0,0,4.51942,0.720836,0.171774,0,
0.000854492,0.00201416,0.010376,0,0,0,0,0,0,0,0,4.32264,0.705243,0.163051,0,
-0.00189209,0.000854492,0.00396729,0,0,0,0,0,0,0,0,4.11718,0.728246,0.150484,0,
0.000671387,6.10352E-05,0.00183105,0,0,0,0,0,0,0,0,4.14894,0.733285,0.142172,0,
-0.00213623,0.000183105,0.00946045,0,0,0,0,0,0,0,0,4.2372,0.729845,0.138698,0,
-0.0043335,-0.000732422,0.00518799,0,0,0,0,0,0,0,0,4.28075,0.68171,0.136511,0,
-0.00653076,-0.00109863,0.00549316,0,0,0,0,0,0,0,0,4.16926,0.611431,0.130368,0,
-0.00543213,-0.00268555,0.00579834,0,0,0,0,0,0,0,0,4.0663,0.584272,0.126385,0,
-0.00482178,-0.00390625,-0.00549316,0,0,0,0,0,0,0,0,4.09486,0.621097,0.122202,0,
-0.00518799,-0.00317383,-0.00732422,0,0,0,0,0,0,0,0,4.06493,0.639062,0.122854,0,
-0.00366211,-0.00354004,-0.00610352,0,0,0,0,0,0,0,0,4.03705,0.652495,0.119073,0,
-0.00280762,-0.00384521,-0.00732422,0,0,0,0,0,0,0,0,3.96766,0.629153,0.113338,0,
-0.00482178,-0.00396729,-0.0219727,0,0,0,0,0,0,0,0,3.9611,0.632464,0.10801,0,
-0.000427246,-0.00427246,-0.0253296,0,0,0,0,0,0,0,0,3.90085,0.616755,0.118824,0,
0.0012207,-0.0045166,-0.022583,0,0,0,0,0,0,0,0,3.5962,0.599672,0.118089,0,
-0.003479,-0.00518799,-0.0115967,0,0,0,0,0,0,0,0,3.42753,0.647403,0.1174,0,
-0.0067749,-0.00390625,0.0012207,0,0,0,0,0,0,0,0,3.40625,0.691449,0.108632,0,
-0.00152588,-0.00354004,0.00762939,0,0,0,0,0,0,0,0,3.13031,0.741329,0.115135,0,
0.00305176,-0.000793457,0.00610352,0,0,0,0,0,0,0,0,2.91559,0.775871,0.117455,0,
0.00299072,-0.000244141,-0.000610352,0,0,0,0,0,0,0,0,2.67141,0.796438,0.124881,0,
0.00372314,-0.00115967,-0.0146484,0,0,0,0,0,0,0,0,2.46718,0.826282,0.1318,0,
0.00634766,-0.0020752,-0.00701904,0,0,0,0,0,0,0,0,2.40369,0.88872,0.133243,0,
0.00500488,-0.000488281,0.0106812,0,0,0,0,0,0,0,0,2.42411,0.865027,0.135064,0,
0.00592041,-0.00140381,0.0125122,0,0,0,0,0,0,0,0,2.33988,0.869935,0.136727,0,
0.00708008,-0.00311279,-0.00366211,0,0,0,0,0,0,0,0,2.02082,0.87255,0.143691,0,
0.00854492,-0.00305176,0.00579834,0,0,0,0,0,0,0,0,1.6651,0.903163,0.140957,0,
0.00799561,-0.00341797,0.0088501,0,0,0,0,0,0,0,0,1.44007,0.904695,0.151442,0,
0.00354004,-0.003479,0.00976562,0,0,0,0,0,0,0,0,1.59727,0.917291,0.166736,0,
0.00140381,-0.00390625,0.00823975,0,0,0,0,0,0,0,0,1.68342,0.942342,0.175047,0,
0.00262451,-0.00244141,0.012207,0,0,0,0,0,0,0,0,1.63409,0.961377,0.173495,0,
0.00128174,-0.00274658,0.00793457,0,0,0,0,0,0,0,0,1.51076,0.989138,0.168487,0,
-0.00170898,-0.00445557,-0.00457764,0,0,0,0,0,0,0,0,1.6335,1.00501,0.162797,0,
-0.00128174,-0.00354004,-0.0216675,0,0,0,0,0,0,0,0,1.75662,1.00126,0.162956,0,
-0.00146484,-0.00335693,-0.0274658,0,0,0,0,0,0,0,0,1.8687,1.01412,0.157219,0,
-0.00323486,-0.00189209,-0.0250244,0,0,0,0,0,0,0,0,1.82164,1.0454,0.152334,0,
-0.00128174,0.000305176,-0.00427246,0,0,0,0,0,0,0,0,1.90169,1.04768,0.148326,0,
0.00146484,0.00164795,-0.0149536,0,0,0,0,0,0,0,0,2.08652,0.961587,0.147429,0,
0.0106812,-0.000549316,-0.00854492,0,0,0,0,0,0,0,0,2.19612,0.874843,0.146138,0,
0.0157471,-0.00140381,0.00427246,0,0,0,0,0,0,0,0,2.3548,0.843029,0.144338,0,
0.00860596,-0.000244141,0.0100708,0,0,0,0,0,0,0,0,2.36431,0.816525,0.13892,0,
0.00390625,0.00012207,0.00549316,0,5,5,0,5,5,0,0,2.33326,0.761485,0.132178,54,
-0.00482178,-0.000854492,0.00335693,0,5,5,0,5,5,0,0,2.29976,0.699032,0.13192,54,
-0.00585938,0.00158691,0.0112915,0,5,5,0,5,5,0,0,2.32762,0.696638,0.132622,54,
-0.00213623,0.00274658,0.0140381,0,5,5,0,5,5,0,0,2.29793,0.692747,0.128318,54,
-0.00109863,0.000549316,0.0244141,0,5,5,0,5,5,0,0,2.27365,0.685359,0.125392,54,
0.0012207,0.00170898,0.0198364,0,5,5,0,5,5,0,0,2.37635,0.6749,0.126225,54,
0.003479,0.00244141,0.0119019,0,5,5,0,5,5,0,0,2.47995,0.691246,0.123805,54,
0.00750732,0.00360107,0.00762939,0,5,5,0,5,5,0,0,2.32915,0.678481,0.11575,54,
0.00012207,0.00366211,0.0131226,0,0,0,0,0,0,0,0,2.19478,0.582335,0.11159,0,
-0.00128174,0.00445557,0.0195312,0,0,0,0,0,0,0,0,2.18288,0.546009,0.107321,0,
-0.00231934,0.00402832,0.0134277,0,0,0,0,0,0,0,0,2.2521,0.498781,0.109572,0,
-0.00341797,0.00384521,0.0131226,0,0,0,0,0,0,0,0,2.12449,0.483616,0.11799,0,
-0.00152588,0.00231934,-0.0323486,0,0,0,0,0,0,0,0,2.0249,0.486878,0.119787,0,
0.000549316,-0.000610352,-0.0396729,0,0,0,0,0,0,0,0,1.77244,0.512751,0.116384,0,
0.000671387,-0.0043335,-0.0286865,0,0,0,0,0,0,0,0,1.80642,0.534061,0.105453,0,
0.00476074,-0.00701904,-0.00671387,0,0,0,0,0,0,0,0,1.68372,0.508195,0.100071,0,
0.00976562,-0.0065918,-0.0012207,0,0,0,0,0,0,0,0,1.4884,0.504559,0.108386,0,
0.00512695,-0.00683594,-0.00732422,0,0,0,0,0,0,0,0,1.31592,0.535568,0.110459,0,
0.00201416,-0.00653076,-0.0128174,0,0,0,0,0,0,0,0,1.3428,0.570985,0.110819,0,
0.00134277,-0.00671387,-0.0128174,0,0,0,0,0,0,0,0,1.39089,0.574946,0.114223,0,
0.000915527,-0.0055542,-0.00946045,0,0,0,0,0,0,0,0,1.32052,0.579493,0.119814,0,
-0.00250244,-0.00512695,-0.015564,0,0,0,0,0,0,0,0,1.32137,0.601739,0.117583,0,
-0.00524902,-0.00476074,-0.0180054,0,0,0,0,0,0,0,0,1.24002,0.603312,0.11338,0,
-0.00415039,-0.0045166,-0.0131226,0,0,0,0,0,0,0,0,1.28212,0.574987,0.119049,0,
-0.00219727,-0.00427246,-0.00946045,0,0,0,0,0,0,0,0,1.39411,0.554016,0.114428,0,
-0.000427246,-0.00402832,-0.0115967,0,0,0,0,0,0,0,0,1.40768,0.561951,0.114215,0,
0.00164795,-0.00372314,-0.00610352,0,0,0,0,0,0,0,0,1.37048,0.54147,0.107054,0,
0.00531006,-0.00366211,-0.00244141,0,0,0,0,0,0,0,0,1.31717,0.51986,0.104136,0,
0.00775146,-0.00256348,-0.00701904,0,0,0,0,0,0,0,0,1.33601,0.526929,0.106259,0,
0.00720215,-0.00134277,-0.0143433,0,0,0,0,0,0,0,0,1.3443,0.519697,0.111969,0,
0.00274658,-0.0020752,-0.0180054,0,0,0,0,0,0,0,0,1.36062,0.527697,0.110696,0,
0.00140381,-0.00317383,-0.0241089,0,0,0,0,0,0,0,0,1.38685,0.539577,0.102543,0,
0.00390625,-0.000488281,-0.0250244,0,0,0,0,0,0,0,0,1.48265,0.547965,0.0976817,0,
0.00714111,0.000244141,-0.0180054,0,0,0,0,0,0,0,0,1.73462,0.504759,0.0964004,0,
0.000305176,0.00134277,-0.0012207,0,0,0,0,0,0,0,0,1.778,0.524621,0.097025,0,
-0.00579834,0.0022583,0.0186157,0,0,0,0,0,0,0,0,1.7734,0.601052,0.101768,0,
-0.00469971,0.00372314,0.0253296,0,0,0,0,0,0,0,0,1.95662,0.645146,0.0991842,0,
-0.00439453,0.00408936,0.0259399,0,0,0,0,0,0,0,0,2.26302,0.606171,0.0967574,0,
0.000976562,0.00396729,0.0180054,0,0,0,0,0,0,0,0,2.25929,0.608067,0.0938956,0,
0.00665283,0.00360107,0.0152588,0,0,0,0,0,0,0,0,2.22846,0.619727,0.0891863,0,
-0.000671387,0.0022583,0.0180054,0,0,0,0,0,0,0,0,2.37008,0.684497,0.0831355,0,
-0.0043335,0.000183105,0.010376,0,0,0,0,0,0,0,0,2.50959,0.70539,0.0856865,0,
-0.00543213,-0.000183105,0.00488281,0,0,0,0,0,0,0,0,2.65657,0.736776,0.0865833,0,
-0.00744629,-0.000793457,0.0012207,0,0,0,0,0,0,0,0,2.75825,0.797302,0.0853687,0,
-0.00286865,-0.000915527,-0.000305176,0,0,0,0,0,0,0,0,2.73226,0.825967,0.0878338,0,
-0.00177002,-6.10352E-05,0.00396729,0,0,0,0,0,0,0,0,2.61573,0.822297,0.0859118,0,
-0.00286865,-0.000488281,-0.00274658,0,0,0,0,0,0,0,0,2.71037,0.830214,0.0845925,0,
0.000732422,-0.00115967,-0.0189209,0,0,0,0,0,0,0,0,2.71227,0.871369,0.0790266,0,
-0.00012207,-0.00366211,-0.0115967,0,0,0,0,0,0,0,0,2.68478,0.917502,0.0701608,0,
-0.000610352,-0.00427246,0.000915527,0,0,0,0,0,0,0,0,2.71107,0.994216,0.0644375,0,
0.00244141,-0.00292969,0.00152588,0,0,0,0,0,0,0,0,2.65745,1.11567,0.0703604,0,
0.0105591,-0.00421143,0.00915527,0,0,0,0,0,0,0,0,2.62902,1.23253,0.0771061,0,
0.0098877,-0.00360107,0.00640869,0,0,0,0,0,0,0,0,2.47468,1.30323,0.0783108,0,
0.0102539,-0.000610352,0.0109863,0,0,0,0,0,0,0,0,2.26907,1.2903,0.0816283,0,
0.00402832,-0.00262451,0.00213623,0,0,0,0,0,0,0,0,2.39091,1.31183,0.0798331,0,
-0.00506592,-0.00488281,-0.00823975,0,0,0,0,0,0,0,0,2.6856,1.3342,0.075479,0,
-0.00878906,-0.00494385,-0.0204468,0,0,0,0,0,0,0,0,2.48384,1.3795,0.0742705,0,
-0.0055542,-0.00402832,-0.020752,0,0,0,0,0,0,0,0,2.25657,1.43377,0.0697131,0,
-0.00482178,-0.00366211,-0.00274658,0,0,0,0,0,0,0,0,2.15665,1.46819,0.067953,0,
-0.000549316,-0.00231934,0.0012207,0,0,0,0,0,0,0,0,2.10694,1.44405,0.0676822,0,
0.00158691,-0.000915527,0.000915527,0,0,0,0,0,0,0,0,1.98324,1.37667,0.0684066,0,
0.00482178,-0.00158691,-0.0119019,0,0,0,0,0,0,0,0,1.89762,1.31895,0.066518,0,
0.00750732,-0.00262451,-0.0167847,0,0,0,0,0,0,0,0,1.84236,1.28859,0.0656415,0,
0.00506592,-0.0010376,0.00274658,0,0,0,0,0,0,0,0,1.79996,1.28993,0.0604162,0,
0.00628662,-0.00238037,-0.0012207,0,0,0,0,0,0,0,0,1.7969,1.30633,0.0582225,0,
0.0117188,-0.00274658,-0.00274658,0,0,0,0,0,0,0,0,1.88647,1.33596,0.0609283,0,
0.0128174,-0.0010376,0.00579834,0,0,0,0,0,0,0,0,1.81998,1.32941,0.0658258,0,
0.0100098,-0.000427246,-0.00213623,0,0,0,0,0,0,0,0,1.90996,1.30396,0.0658916,0,
0.00366211,-0.00109863,-0.00396729,0,0,0,0,0,0,0,0,2.04107,1.2484,0.068872,0,
-0.00402832,-0.000305176,-0.00671387,0,0,0,0,0,0,0,0,2.09099,1.20793,0.0800925,0,
-0.00604248,0.00152588,-0.010376,0,0,0,0,0,0,0,0,2.19906,1.18053,0.0894704,0,
-0.00463867,0.0010376,-0.0088501,0,0,0,0,0,0,0,0,2.33016,1.13414,0.0849067,0,
-0.00482178,-0.000732422,0.00244141,0,0,0,0,0,0,0,0,2.5614,1.10847,0.0807647,0,
-0.0043335,-0.00183105,0.00610352,0,0,0,0,0,0,0,0,2.60989,1.11029,0.0794902,0,
-0.00616455,-0.00195312,0.00518799,0,0,0,0,0,0,0,0,2.50314,1.05347,0.0847981,0,
-0.00665283,-0.00158691,0.00671387,0,0,0,0,0,0,0,0,2.41271,0.993802,0.0873342,0,
-0.00244141,-0.00488281,-0.00457764,0,0,0,0,0,0,0,0,2.61565,0.978934,0.0921602,0,
0.00158691,-0.00402832,-0.0012207,0,0,0,0,0,0,0,0,2.61067,0.99538,0.0979412,0,
-0.00384521,-0.00341797,0.00396729,0,0,0,0,0,0,0,0,2.57526,0.998437,0.103163,0,
-0.00256348,-0.00518799,0.00427246,0,0,0,0,0,0,0,0,2.52776,1.01065,0.104316,0,
0.00317383,-0.00390625,-0.0146484,0,0,0,0,0,0,0,0,2.55323,1.00568,0.105115,0,
0.00958252,-0.00445557,-0.012207,0,0,0,0,0,0,0,0,2.51956,1.03812,0.104646,0,
0.00897217,-0.00518799,0.00335693,0,0,0,0,0,0,0,0,2.44277,1.08642,0.106911,0,
0.00854492,-0.00585938,0.00823975,0,0,0,0,0,0,0,0,2.37131,1.05591,0.111189,0,
0.00872803,-0.00512695,-0.000305176,0,0,0,0,0,0,0,0,2.25759,1.0155,0.112924,0,
0.00585938,-0.00518799,-0.0323486,0,0,0,0,0,0,0,0,2.17467,0.968387,0.119082,0,
0.00390625,-0.00469971,-0.0387573,0,0,0,0,0,0,0,0,2.13478,0.967379,0.129345,0,
0.00213623,-0.0055542,-0.0305176,0,0,0,0,0,0,0,0,2.15697,0.981003,0.142173,0,
-0.00128174,-0.00415039,-0.0152588,0,0,0,0,0,0,0,0,2.12594,1.04206,0.143206,0,
-0.000854492,-0.00250244,-0.00244141,0,0,0,0,0,0,0,0,2.04138,0.996585,0.132206,0,
6.10352E-05,-0.00134277,0,0,0,0,0,0,0,0,0,2.18503,0.886994,0.124272,0,
0.0010376,-0.00152588,-0.00152588,0,0,0,0,0,0,0,0,2.24928,0.807474,0.137061,0,
-0.0022583,-0.00189209,0.0088501,0,0,0,0,0,0,0,0,2.24495,0.82152,0.159634,0,
-0.00134277,-0.00231934,0.00427246,0,0,0,0,0,0,0,0,2.30584,0.868594,0.168761,0,
-0.0020752,-0.0020752,-0.00579834,0,0,0,0,0,0,0,0,2.22642,0.844488,0.165643,0,
0.000427246,0.000427246,-0.0012207,0,0,0,0,0,0,0,0,2.17092,0.802719,0.167277,0,
0.00610352,0.00360107,0.00335693,0,0,0,0,0,0,0,0,2.07823,0.743522,0.170887,0,
0.00164795,0.00439453,0.0222778,0,0,0,0,0,0,0,0,2.34372,0.701847,0.168891,0,
0.0078125,0.00317383,0.0238037,0,0,0,0,0,0,0,0,2.62412,0.63786,0.166024,0,
0.00427246,0.00292969,0.0265503,0,0,0,0,0,0,0,0,2.82737,0.622549,0.163445,0,
-0.00115967,0.000671387,0.0192261,0,0,0,0,0,0,0,0,2.82785,0.636454,0.164773,0,
0.0010376,-0.00177002,0.0134277,0,0,0,0,0,0,0,0,2.88978,0.601505,0.170247,0,
0.00616455,-0.00372314,0.00518799,0,0,0,0,0,0,0,0,3.00941,0.579271,0.171071,0,
0.00115967,-0.00421143,-0.00396729,0,0,0,0,0,0,0,0,3.10099,0.55845,0.165119,0,
0.00354004,-0.00366211,-0.0012207,0,0,0,0,0,0,0,0,3.38756,0.59549,0.162413,0,
0.00500488,-0.0020752,0.00305176,0,0,0,0,0,0,0,0,3.67856,0.624377,0.15728,0,
0.00860596,-0.00408936,-0.000305176,0,0,0,0,0,0,0,0,3.90697,0.646606,0.146839,0,
0.00769043,-0.0032959,-0.00610352,0,0,0,0,0,0,0,0,3.96266,0.615662,0.13723,0,
0.00463867,-0.0020752,0.00305176,0,0,0,0,0,0,0,0,3.8823,0.562827,0.131729,0,
-0.000366211,-0.00146484,0.00854492,0,0,0,0,0,0,0,0,3.93685,0.607762,0.13435,0,
-0.00408936,0.000610352,0.00976562,0,0,0,0,0,0,0,0,3.86917,0.682173,0.131323,0,
-0.00311279,0.00152588,-0.0222778,0,0,0,0,0,0,0,0,3.91428,0.711127,0.114669,0,
-0.00402832,0.00146484,-0.0308228,0,0,0,0,0,0,0,0,3.99248,0.656744,0.0939656,0,
-0.00476074,0,-0.0152588,0,0,0,0,0,0,0,0,4.10293,0.618606,0.079858,0,
6.10352E-05,-0.0010376,0.00366211,0,0,0,0,0,0,0,0,4.17578,0.641302,0.0798533,0,
0.00457764,-0.000915527,0.00274658,0,0,0,0,0,0,0,0,4.04125,0.647171,0.0731054,0,
0.00402832,-0.000854492,-0.00396729,0,0,0,0,0,0,0,0,4.03585,0.630183,0.064879,0,
-0.00500488,-0.000549316,0.00488281,0,0,0,0,0,0,0,0,3.66962,0.586724,0.0613934,0,
0.00183105,-0.000549316,0.0158691,0,0,0,0,0,0,0,0,3.33652,0.601062,0.060478,0,
0.00286865,-0.000793457,0.00335693,0,0,0,0,0,0,0,0,3.13211,0.599564,0.067674,0,
0.00463867,-0.000610352,0.00183105,0,0,0,0,0,0,0,0,3.25803,0.569347,0.0640274,0,
0.00457764,-0.00134277,0.00396729,0,0,0,0,0,0,0,0,3.29752,0.57665,0.0660054,0,
0.000610352,-0.00189209,-0.0100708,0,0,0,0,0,0,0,0,3.40946,0.56004,0.0701343,0,
-0.00170898,-0.00195312,-0.010376,0,0,0,0,0,0,0,0,3.478,0.568963,0.0779179,0,
-0.0012207,-0.00115967,-0.00610352,0,0,0,0,0,0,0,0,3.2353,0.531216,0.0852049,0,
-0.00195312,-0.000244141,-0.0115967,0,0,0,0,0,0,0,0,2.96849,0.499767,0.0955017,0,
0.000427246,0.000244141,-0.00488281,0,0,0,0,0,0,0,0,2.83971,0.505093,0.100638,0,
-0.00195312,-0.00305176,0.00183105,0,0,0,0,0,0,0,0,2.83832,0.506635,0.10302,0,
-0.00311279,-0.0012207,0.0158691,0,0,0,0,0,0,0,0,2.8544,0.492506,0.102936,0,
-0.00421143,-0.000427246,0.0119019,0,0,0,0,0,0,0,0,2.80056,0.45674,0.104941,0,
0.00390625,-0.000549316,0.00854492,0,0,0,0,0,0,0,0,2.60702,0.397898,0.103195,0,
0.00543213,0.00128174,0.0100708,0,0,0,0,0,0,0,0,2.45184,0.398861,0.109948,0,
-0.0020752,0.0012207,0.00549316,0,0,0,0,0,0,0,0,2.22603,0.421932,0.108221,0,
-0.00646973,0.000976562,-0.0088501,0,0,0,0,0,0,0,0,2.03819,0.485776,0.111798,0,
-0.00744629,0.000244141,-0.0268555,0,0,0,0,0,0,0,0,2.00382,0.475877,0.115042,0,
-6.10352E-05,-0.000793457,-0.0314331,0,0,0,0,0,0,0,0,2.08478,0.540553,0.114488,0,
0.00402832,-0.000854492,-0.038147,0,0,0,0,0,0,0,0,1.93854,0.637596,0.1147,0,
0.00195312,-0.0032959,-0.0393677,0,0,0,0,0,0,0,0,2.248,0.738126,0.115071,0,
0.00610352,-0.00268555,-0.0170898,0,0,0,0,0,0,0,0,2.3842,0.834938,0.119179,0,
0.0172119,-0.00170898,0.00671387,0,0,0,0,0,0,0,0,2.34799,0.857763,0.117898,0,
0.0148926,-0.000610352,0.0210571,0,0,0,0,0,0,0,0,2.28755,0.858484,0.123432,0,
0.00439453,-0.00115967,0.0338745,0,0,0,0,0,0,0,0,2.18634,0.901706,0.119309,0,
0.00170898,-0.000976562,0.0302124,0,0,0,0,0,0,0,0,2.10233,0.949777,0.12482,0,
0.00317383,-0.00323486,0.0161743,0,0,0,0,0,0,0,0,2.00845,0.995185,0.128031,0,
0.00274658,-0.00445557,0.00823975,0,0,0,0,0,0,0,0,2.051,1.01532,0.122041,0,
0.00561523,-0.0032959,0.00396729,0,0,0,0,0,0,0,0,2.03699,1.09508,0.111755,0,
0.00976562,-0.00146484,0.00213623,0,0,0,0,0,0,0,0,1.96597,1.08124,0.104633,0,
0.00738525,-0.00189209,-0.00244141,0,0,0,0,0,0,0,0,1.9373,1.10321,0.104369,0,
-0.00506592,-0.00506592,-0.0137329,0,0,0,0,0,0,0,0,1.92845,1.12532,0.109024,0,
-0.00695801,-0.00561523,-0.0109863,0,0,0,0,0,0,0,0,1.94855,1.12006,0.111889,0,
-0.00665283,-0.00634766,-0.00488281,0,0,0,0,0,0,0,0,2.01496,1.14295,0.113877,0,
-0.00604248,-0.00476074,-0.00213623,0,0,0,0,0,0,0,0,1.97311,1.19068,0.121117,0,
-0.00842285,-0.00280762,0.0088501,0,0,0,0,0,0,0,0,2.00836,1.21374,0.130112,0,
-0.00738525,-0.00231934,0.00244141,0,0,0,0,0,0,0,0,1.96335,1.21244,0.128867,0,
-0.00567627,-0.00231934,-0.010376,0,0,0,0,0,0,0,0,1.99659,1.21114,0.126661,0,
-0.00848389,-0.0012207,-0.00457764,0,0,0,0,0,0,0,0,1.93423,1.13632,0.128898,0,
0.0045166,-0.00305176,-0.0012207,0,0,0,0,0,0,0,0,2.02175,1.07895,0.125316,0,
0.00360107,-0.00421143,0.00976562,0,0,0,0,0,0,0,0,1.70879,1.03277,0.12953,0,
0.00341797,-0.00323486,0.00610352,0,0,0,0,0,0,0,0,1.54872,0.970923,0.126846,0,
-0.000244141,-0.003479,-0.00610352,0,0,0,0,0,0,0,0,1.76751,0.97425,0.119724,0,
-0.00537109,-0.000976562,-0.000915527,0,0,0,0,0,0,0,0,1.77309,0.989851,0.11387,0,
-0.00506592,0.0032959,0.0131226,0,0,0,0,0,0,0,0,1.75964,0.940146,0.115582,0,
-0.0045166,0.00195312,0.0106812,0,0,0,0,0,0,0,0,1.59384,0.887436,0.105872,0,
6.10352E-05,-0.000305176,-0.00946045,0,0,0,0,0,0,0,0,1.51842,0.8383,0.0990904,0,
0.00244141,-0.00177002,-0.0088501,0,0,0,0,0,0,0,0,1.52379,0.828233,0.104658,0,
0.00415039,-0.0032959,-0.00183105,0,0,0,0,0,0,0,0,1.5489,0.817748,0.102053,0,
0.00524902,-0.0057373,0.00183105,0,0,0,0,0,0,0,0,1.6405,0.808342,0.100507,0,
0.00354004,-0.00518799,0.00183105,0,0,0,0,0,0,0,0,1.60445,0.801034,0.103138,0,
0.000671387,-0.00372314,-0.00335693,0,0,0,0,0,0,0,0,1.66445,0.782864,0.100743,0,
0.00311279,-0.00415039,-0.00671387,0,0,0,0,0,0,0,0,1.82477,0.808244,0.096052,0,
0.00976562,-0.00482178,-0.00732422,0,0,0,0,0,0,0,0,1.91224,0.767663,0.105414,0,
0.0108032,-0.00183105,0.00244141,0,0,0,0,0,0,0,0,1.97458,0.695077,0.110215,0,
0.00640869,-0.000427246,-0.00854492,0,0,0,0,0,0,0,0,1.84805,0.644308,0.109854,0,
-0.00128174,-0.000305176,-0.00366211,0,0,0,0,0,0,0,0,1.94667,0.607623,0.111777,0,
-0.00598145,0.000915527,0.00457764,0,0,0,0,0,0,0,0,2.02378,0.588207,0.119609,0,
-0.00665283,0.00292969,0.00305176,0,0,0,0,0,0,0,0,2.0657,0.56644,0.132041,0,
-0.00378418,0.00445557,0.0128174,0,0,0,0,0,0,0,0,1.98175,0.601255,0.157212,0,
-0.00305176,0.00238037,0.00549316,0,0,0,0,0,0,0,0,2.00362,0.605753,0.173074,0,
-0.00195312,0.00140381,0.00518799,0,0,0,0,0,0,0,0,2.25552,0.596701,0.17913,0,
-0.000305176,0.00109863,-0.0012207,0,0,0,0,0,0,0,0,2.21404,0.558918,0.179941,0,
0.00177002,0.000427246,-0.00396729,0,0,0,0,0,0,0,0,2.12877,0.554123,0.190558,0,
0.00408936,-0.000915527,-0.00915527,0,0,0,0,0,0,0,0,2.16313,0.623337,0.204451,0,
0.00128174,-0.00415039,-0.00915527,0,0,0,0,0,0,0,0,2.19515,0.629595,0.216467,0,
-0.000976562,-0.00415039,-0.00305176,0,0,0,0,0,0,0,0,2.22908,0.621822,0.224518,0,
0.00360107,-0.00280762,-0.00976562,0,0,0,0,0,0,0,0,2.16668,0.599159,0.228792,0,
0.00561523,-0.00128174,-0.0112915,0,0,0,0,0,0,0,0,2.19502,0.58124,0.234831,0,
0.00280762,-0.00146484,0.000915527,0,0,0,0,0,0,0,0,2.17294,0.667946,0.233223,0,
0.00146484,-0.00335693,0.00305176,0,0,0,0,0,0,0,0,2.09272,0.655795,0.237124,0,
0.0055542,-0.00292969,0.00762939,0,0,0,0,0,0,0,0,2.00325,0.659671,0.246023,0,
0.003479,-0.00134277,0.00854492,0,0,0,0,0,0,0,0,1.98283,0.695426,0.255109,0,
0.00305176,0.00134277,0.00213623,0,0,0,0,0,0,0,0,1.99279,0.764886,0.249398,0,
6.10352E-05,0.00311279,-0.0210571,0,0,0,0,0,0,0,0,1.9705,0.805443,0.234073,0,
-0.00567627,0.00341797,-0.0286865,0,0,0,0,0,0,0,0,1.97531,0.812964,0.227086,0,
-0.00518799,0.00213623,-0.0100708,0,0,0,0,0,0,0,0,1.93552,0.786683,0.222695,0,
-0.00622559,-0.000305176,-0.00366211,0,0,0,0,0,0,0,0,1.8305,0.798381,0.214322,0,
-0.00726318,-0.00231934,-0.00366211,0,0,0,0,0,0,0,0,1.95322,0.817562,0.207237,0,
-0.000976562,-0.00561523,-0.0192261,0,0,0,0,0,0,0,0,2.19757,0.742394,0.198147,0,
0.00787354,-0.0055542,-0.00854492,0,0,0,0,0,0,0,0,2.42112,0.694044,0.186547,0,
0.000549316,-0.00506592,0.0125122,0,0,0,0,0,0,0,0,2.26329,0.686042,0.178126,0,
-0.000915527,-0.00476074,0.0100708,0,0,0,0,0,0,0,0,2.29743,0.682418,0.181162,0,
0.00567627,-0.00378418,0.00152588,0,0,0,0,0,0,0,0,2.40487,0.775032,0.174912,0,
0.00457764,-0.00408936,0.000610352,0,0,0,0,0,0,0,0,2.48818,0.79326,0.159065,0,
0.00787354,-0.00543213,-0.00366211,0,0,0,0,0,0,0,0,2.48845,0.88274,0.151246,0,
0.0088501,-0.00549316,0,0,0,0,0,0,0,0,0,2.43503,0.963165,0.142862,0,
0.00140381,-0.00531006,0.0140381,0,0,0,0,0,0,0,0,2.42261,0.989922,0.132363,0,
-0.00292969,-0.00482178,0.0149536,0,0,0,0,0,0,0,0,2.43815,1.0305,0.125719,0,
-0.003479,-0.00384521,0.0088501,0,0,0,0,0,0,0,0,2.42887,1.01764,0.127362,0,
-0.00146484,-0.003479,0.00488281,0,0,0,0,0,0,0,0,2.42219,1.06561,0.118002,0,
-0.00439453,-0.00280762,0.00549316,0,0,0,0,0,0,0,0,2.47011,1.11844,0.106652,0,
-0.00482178,-0.00213623,-0.00213623,0,0,0,0,0,0,0,0,2.51042,1.11534,0.0961893,0,
-0.0055542,-0.00274658,-0.00274658,0,0,0,0,0,0,0,0,2.58805,1.07003,0.08639,0,
-0.00567627,-0.0022583,-0.0100708,0,0,0,0,0,0,0,0,2.79491,1.06713,0.0934048,0,
-0.00421143,-0.00256348,-0.00640869,0,0,0,0,0,0,0,0,2.90314,1.0661,0.0937102,0,
-0.00408936,-0.00170898,0.000305176,0,0,0,0,0,0,0,0,2.84204,1.06376,0.0973856,0,
-0.00360107,0.0012207,0.00152588,0,0,0,0,0,0,0,0,2.79831,1.0746,0.0993859,0,
-0.00506592,0.00299072,0.0195312,0,0,0,0,0,0,0,0,2.80011,1.17801,0.101975,0,
-0.00366211,0.00109863,0.0115967,0,0,0,0,0,0,0,0,2.7767,1.29483,0.087856,0,
-0.00524902,0.00158691,0.00457764,0,0,0,0,0,0,0,0,2.8066,1.39965,0.0836937,0,
-0.000549316,0.00231934,-0.00274658,0,0,0,0,0,0,0,0,2.9077,1.47454,0.0856389,0,
0,-0.000854492,-0.00335693,0,0,0,0,0,0,0,0,2.72546,1.52195,0.0821538,0,
0.000854492,-0.00354004,-0.00549316,0,0,0,0,0,0,0,0,2.68901,1.48168,0.0898456,0,
-0.000732422,-0.0020752,-0.00366211,0,0,0,0,0,0,0,0,2.65137,1.54627,0.0978166,0,
0.000305176,-0.00115967,0.00274658,0,0,0,0,0,0,0,0,2.61517,1.57003,0.0924155,0,
0.000915527,0.00134277,-0.000915527,0,0,0,0,0,0,0,0,2.68783,1.59378,0.0926733,0,
0.00262451,0.000610352,-0.0012207,0,0,0,0,0,0,0,0,2.73344,1.61243,0.0959673,0,
0.00500488,-0.000488281,0.00701904,0,0,0,0,0,0,0,0,2.61227,1.52274,0.0952577,0,
0.00769043,-0.000915527,0.00305176,0,0,0,0,0,0,0,0,2.47268,1.47152,0.0944059,0,
0.00360107,-0.000976562,0.00274658,0,0,0,0,0,0,0,0,2.66551,1.45589,0.100138,0,
0.0105591,-0.000976562,0,0,0,0,0,0,0,0,0,2.72868,1.40231,0.111725,0,
0.0171509,-0.00317383,-0.00854492,0,0,0,0,0,0,0,0,2.56247,1.44311,0.119453,0,
0.0112305,-0.00384521,-0.00579834,0,0,0,0,0,0,0,0,2.39377,1.5283,0.122874,0,
0.00549316,-0.00488281,-0.000915527,0,0,0,0,0,0,0,0,2.23845,1.62686,0.117103,0,
0.00256348,-0.00384521,-0.00183105,0,0,0,0,0,0,0,0,2.2155,1.72479,0.11629,0,
-0.0020752,-0.0012207,-0.0012207,0,0,0,0,0,0,0,0,2.25568,1.79559,0.111921,0,
-0.00335693,6.10352E-05,0.00518799,0,0,0,0,0,0,0,0,2.32789,1.76883,0.106931,0,
-0.00531006,0.000183105,0.00183105,0,0,0,0,0,0,0,0,2.16008,1.76586,0.105746,0,
-0.00976562,-0.000854492,-0.0088501,0,0,0,0,0,0,0,0,2.07614,1.72687,0.107132,0,
-0.0105591,-0.00115967,-0.00183105,0,0,0,0,0,0,0,0,1.86376,1.70622,0.102615,0,
-0.0109253,-0.000305176,-0.000610352,0,0,0,0,0,0,0,0,1.70019,1.64726,0.103074,0,
-0.0010376,0.000488281,-0.00244141,0,0,0,0,0,0,0,0,1.71924,1.64838,0.103078,0,
0.00396729,0.00213623,0.00274658,0,0,0,0,0,0,0,0,1.61661,1.61516,0.0913374,0,
0.00195312,0.00378418,0.0140381,0,0,0,0,0,0,0,0,1.737,1.46258,0.0825134,0,
0.00415039,0.00512695,0.0222778,0,0,0,0,0,0,0,0,2.0011,1.34239,0.0821025,0,
0.00720215,0.0043335,0.0088501,0,0,0,0,0,0,0,0,1.98706,1.23187,0.0845148,0,
0.00634766,0.00238037,-0.0100708,0,0,0,0,0,0,0,0,1.9975,1.18497,0.0888223,0,
0.00775146,0.000610352,-0.00488281,0,0,0,0,0,0,0,0,2.05992,1.20668,0.0922512,0,
0.00799561,-0.00012207,0.00183105,0,0,0,0,0,0,0,0,2.08726,1.23913,0.0909417,0,
0.00830078,-0.00317383,0.00762939,0,0,0,0,0,0,0,0,2.01866,1.28741,0.0840063,0,
0.00769043,-0.00585938,0.0131226,0,0,0,0,0,0,0,0,2.01064,1.36189,0.07986,0,
0.00354004,-0.00830078,0.00793457,0,0,0,0,0,0,0,0,2.13207,1.26408,0.0765325,0,
0.00286865,-0.00939941,0.000915527,0,0,0,0,0,0,0,0,2.14584,1.19224,0.0764861,0,
-0.00146484,-0.00952148,-0.0012207,0,0,0,0,0,0,0,0,2.00228,1.16435,0.0736594,0,
-0.00274658,-0.00756836,-0.00732422,0,0,0,0,0,0,0,0,1.98742,1.14157,0.0733192,0,
-0.00457764,-0.00878906,0.0109863,0,0,0,0,0,0,0,0,2.08736,1.10644,0.0750534,0,
-0.00634766,-0.00976562,-0.00549316,0,0,0,0,0,0,0,0,2.208,1.12414,0.0826075,0,
0.00280762,-0.00744629,-0.022583,0,0,0,0,0,0,0,0,2.24648,1.03946,0.081594,0,
0.00671387,-0.00567627,-0.0341797,0,0,0,0,0,0,0,0,2.21355,1.02772,0.0835803,0,
0.00366211,-0.0043335,-0.0289917,0,0,0,0,0,0,0,0,2.25092,1.00497,0.0873522,0,
0.00610352,-0.00390625,-0.0137329,0,0,0,0,0,0,0,0,2.26291,0.941517,0.0882453,0,
0.00238037,-0.00177002,-0.00183105,0,0,0,0,0,0,0,0,2.22081,0.99169,0.0928905,0,
0.00134277,-0.00170898,-0.00244141,0,0,0,0,0,0,0,0,2.31325,1.03563,0.0946934,0,
-0.00128174,-0.00109863,-0.00610352,0,0,0,0,0,0,0,0,2.27474,1.07314,0.094683,0,
-0.000549316,-0.0010376,-0.0112915,0,0,0,0,0,0,0,0,2.26752,1.10415,0.0931674,0,
-0.0043335,-0.00189209,-0.012207,0,0,0,0,0,0,0,0,2.34583,1.14629,0.0887878,0,
-0.00427246,-0.00170898,-0.00610352,0,0,0,0,0,0,0,0,2.33725,1.20988,0.0809852,0,
0.00256348,-0.00231934,0.00213623,0,0,0,0,0,0,0,0,2.29345,1.22789,0.0783889,0,
0.00561523,-0.00170898,0.0088501,0,0,0,0,0,0,0,0,2.37213,1.22612,0.078615,0,
0.0043335,-0.00134277,0.0128174,0,0,0,0,0,0,0,0,2.36938,1.19482,0.0783788,0,
-0.00109863,0.00244141,0.0125122,0,0,0,0,0,0,0,0,2.54562,1.11523,0.0728458,0,
0.0012207,0.0065918,0.017395,0,0,0,0,0,0,0,0,2.62748,1.12132,0.0671364,0,
0.00219727,0.00787354,0.012207,0,0,0,0,0,0,0,0,2.71326,1.15286,0.0685452,0,
0.00592041,0.0065918,0.010376,0,0,0,0,0,0,0,0,2.83472,1.09102,0.0711904,0,
-0.0012207,0.00634766,0.012207,0,0,0,0,0,0,0,0,2.77085,0.998273,0.0740219,0,
-0.00500488,0.00476074,0.0189209,0,0,0,0,0,0,0,0,2.59613,0.993434,0.0778607,0,
-0.00726318,0.00341797,0.012207,0,0,0,0,0,0,0,0,2.42775,1.0243,0.0738627,0,
-0.00640869,0.0032959,0.012207,0,0,0,0,0,0,0,0,2.51025,1.03765,0.0701348,0,
-0.00579834,0.00311279,0.0106812,0,0,0,0,0,0,0,0,2.63757,1.04875,0.0666906,0,
-0.00335693,0.00177002,0.00823975,0,0,0,0,0,0,0,0,2.88952,1.07982,0.0655372,0,
-0.0045166,-0.000366211,0.0112915,0,0,0,0,0,0,0,0,2.97914,1.11379,0.0648997,0,
-0.00238037,0.000488281,0.00549316,0,0,0,0,0,0,0,0,3.03507,1.05505,0.059507,0,
0.0012207,-0.00012207,0.00518799,0,0,0,0,0,0,0,0,2.95234,1.06604,0.061973,0,
0.00115967,-0.0022583,-0.00427246,0,0,0,0,0,0,0,0,2.83138,1.16342,0.067283,0,
0.0012207,-0.00402832,-0.0158691,0,0,0,0,0,0,0,0,2.70088,1.21148,0.0712651,0,
0.00665283,-0.00518799,-0.0228882,0,0,0,0,0,0,0,0,2.7032,1.25404,0.0744453,0,
0.0114746,-0.00524902,-0.0402832,0,0,0,0,0,0,0,0,2.7992,1.26714,0.0815074,0,
0.0114746,-0.00567627,-0.0363159,0,0,0,0,0,0,0,0,2.92218,1.29847,0.0872794,0,
0.00946045,-0.00518799,-0.0128174,0,0,0,0,0,0,0,0,3.05603,1.23729,0.0891188,0,
0.0142822,-0.00292969,0.0125122,0,0,0,0,0,0,0,0,2.99631,1.21741,0.0891648,0,
0.0127563,-0.00549316,0.00915527,0,0,0,0,0,0,0,0,2.85011,1.28548,0.0927287,0,
0.00512695,-0.00524902,0.00244141,0,0,0,0,0,0,0,0,2.67846,1.35066,0.0955865,0,
-0.00378418,-0.00274658,-0.0012207,0,0,0,0,0,0,0,0,2.67941,1.33136,0.0948116,0,
-0.00262451,-0.000183105,0.0012207,0,0,0,0,0,0,0,0,2.70634,1.28584,0.0922461,0,
-0.0067749,0.000976562,-0.00671387,0,0,0,0,0,0,0,0,2.88526,1.34656,0.100429,0,
-0.0128784,0.00250244,-0.00274658,0,0,0,0,0,0,0,0,3.11514,1.41657,0.0950957,0,
-0.0126953,0.00250244,-0.00305176,0,0,0,0,0,0,0,0,3.0925,1.43574,0.0949128,0,
-0.0116577,0.000610352,-0.00183105,0,0,0,0,0,0,0,0,3.09175,1.38504,0.0973456,0,
-0.00952148,-0.00201416,-0.00518799,0,0,0,0,0,0,0,0,3.09983,1.35428,0.103089,0,
-0.00842285,-0.00231934,-0.00549316,0,0,0,0,0,0,0,0,3.12395,1.32367,0.102274,0,
-0.00695801,-0.0043335,0.000305176,0,0,0,0,0,0,0,0,3.105,1.42693,0.104014,0,
-0.00408936,-0.003479,0.00732422,0,0,0,0,0,0,0,0,3.08667,1.49689,0.108708,0,
0.00238037,-0.00396729,-0.0012207,0,0,0,0,0,0,0,0,3.10745,1.49487,0.104396,0,
0.0032959,-0.00628662,0.00244141,0,0,0,0,0,0,0,0,3.10611,1.37311,0.104352,0,
0.00494385,-0.00695801,0.00915527,0,0,0,0,0,0,0,0,3.20504,1.32711,0.104546,0,
0.00378418,-0.00524902,-0.00579834,0,0,0,0,0,0,0,0,3.25174,1.30526,0.0993171,0,
0.00360107,-0.00634766,-0.0424194,0,0,0,0,0,0,0,0,3.18905,1.36223,0.0938672,0,
0.00494385,-0.00683594,-0.0341797,0,0,0,0,0,0,0,0,3.04014,1.44402,0.0898777,0,
0.00469971,-0.00482178,-0.0170898,0,0,0,0,0,0,0,0,2.79778,1.60123,0.0890723,0,
0.00354004,-0.00299072,0.0012207,0,0,0,0,0,0,0,0,2.8196,1.62689,0.089834,0,
0.00457764,-0.00256348,0.0137329,0,0,0,0,0,0,0,0,2.67947,1.61511,0.0861375,0,
0.0065918,-0.00201416,0.0146484,0,0,0,0,0,0,0,0,2.60116,1.66978,0.0839808,0,
0.00360107,-0.00177002,0.012207,0,0,0,0,0,0,0,0,2.65682,1.74074,0.079206,0,
-0.000732422,-0.00183105,0.0137329,0,0,0,0,0,0,0,0,2.59996,1.83146,0.0782142,0,
-0.00354004,-0.00335693,0.0128174,0,0,0,0,0,0,0,0,2.5834,1.82705,0.0707573,0,
-0.000915527,-0.00219727,0.00457764,0,0,0,0,0,0,0,0,2.4575,1.78289,0.0748358,0,
-0.00177002,-0.00213623,0.00244141,0,0,0,0,0,0,0,0,2.45997,1.73886,0.0738949,0,
-0.000610352,-0.00146484,-0.00396729,0,0,0,0,0,0,0,0,2.3881,1.76403,0.0733584,0,
0.000671387,-0.00115967,0.00671387,0,0,0,0,0,0,0,0,2.20561,1.70926,0.0732258,0,
-0.0012207,0.00134277,0.00183105,0,0,0,0,0,0,0,0,2.03395,1.66295,0.0776751,0,
-0.000549316,0.00170898,-0.000915527,0,0,0,0,0,0,0,0,2.06097,1.53793,0.0750891,0,
0.0022583,0.00115967,-0.00762939,0,0,0,0,0,0,0,0,2.14236,1.43689,0.0735144,0,
0.0045166,0.00164795,0.00701904,0,0,0,0,0,0,0,0,2.20664,1.40026,0.0726647,0,
0.00640869,0.00238037,0.0164795,0,0,0,0,0,0,0,0,2.28821,1.45271,0.0672284,0,
0.00653076,0.00262451,0.0180054,0,0,0,0,0,0,0,0,2.13493,1.47746,0.0660221,0,
0.0111084,0.00140381,0.022583,0,0,0,0,0,0,0,0,2.12702,1.46454,0.0795615,0,
0.0216675,-0.000915527,0.0170898,0,0,0,0,0,0,0,0,2.1549,1.37213,0.0916633,0,
0.0175781,-0.0022583,0.00701904,0,0,0,0,0,0,0,0,2.19175,1.21694,0.0976485,0,
0.0136719,-0.00335693,0.00396729,0,0,0,0,0,0,0,0,2.41283,1.12751,0.0999094,0,
0.00976562,-0.00280762,0.00305176,0,0,0,0,0,0,0,0,2.57055,1.09621,0.10121,0,
-0.000366211,-0.000976562,-0.00335693,0,0,0,0,0,0,0,0,2.72844,1.10674,0.10352,0,
0.000610352,-0.00231934,-0.0125122,0,0,0,0,0,0,0,0,2.7838,1.04015,0.105462,0,
0.00488281,-0.00238037,-0.00762939,0,0,0,0,0,0,0,0,2.6064,0.918513,0.112283,0,
0.0043335,-0.00201416,-0.000915527,0,0,0,0,0,0,0,0,2.61062,0.84498,0.111384,0,
0.00244141,-0.000793457,0.000305176,0,0,0,0,0,0,0,0,2.58293,0.889802,0.107163,0,
-0.00585938,-0.000366211,-0.00183105,0,0,0,0,0,0,0,0,2.59008,0.969176,0.103067,0,
-0.00854492,0,0.00457764,0,0,0,0,0,0,0,0,2.69479,1.04783,0.100937,0,
-0.00341797,0.000732422,0.00762939,0,0,0,0,0,0,0,0,2.68865,1.05432,0.0930613,0,
-0.00616455,-0.000732422,0.0109863,0,0,0,0,0,0,0,0,2.72826,1.07979,0.0841676,0,
0.00109863,-0.000244141,0.0012207,0,0,0,0,0,0,0,0,2.58162,1.07455,0.0779529,0,
0.00219727,-0.00134277,-0.0125122,0,0,0,0,0,0,0,0,2.44095,1.0948,0.0781207,0,
0.00256348,6.10352E-05,-0.0286865,0,0,0,0,0,0,0,0,2.40564,1.15013,0.0788005,0,
0.00360107,-0.00164795,-0.020752,0,0,0,0,0,0,0,0,2.48567,1.19334,0.0820066,0,
0.00695801,-0.0032959,-0.0170898,0,0,0,0,0,0,0,0,2.59119,1.21245,0.0870046,0,
0.00512695,-0.00231934,-0.00762939,0,0,0,0,0,0,0,0,2.66034,1.15594,0.08962,0,
0.00354004,-0.0010376,0.00701904,0,0,0,0,0,0,0,0,2.51583,1.14767,0.0810239,0,
0.0045166,-0.00140381,0.0119019,0,0,0,0,0,0,0,0,2.41292,1.11681,0.0688831,0,
0.00268555,-0.00482178,0,0,0,0,0,0,0,0,0,2.39302,1.11996,0.0698181,0,
0.00268555,-0.00415039,-0.00610352,0,0,0,0,0,0,0,0,2.34502,1.08087,0.0733269,0,
0.000305176,-0.00366211,0.00701904,0,0,0,0,0,0,0,0,2.24,1.14214,0.0728462,0,
-0.0012207,-0.00360107,0.0112915,0,0,0,0,0,0,0,0,2.10223,1.19033,0.0703415,0,
-0.00280762,-0.000366211,0.000915527,0,0,0,0,0,0,0,0,2.06504,1.19781,0.0698705,0,
-0.00152588,0.000671387,-0.00152588,0,0,0,0,0,0,0,0,2.07262,1.2311,0.0693315,0,
-0.00238037,0.000488281,-0.000610352,0,0,0,0,0,0,0,0,2.00629,1.25876,0.0772207,0,
-0.00183105,0.00152588,0.00640869,0,0,0,0,0,0,0,0,1.93109,1.20582,0.0793362,0,
0.00469971,0.000183105,0,0,0,0,0,0,0,0,0,1.86604,1.18618,0.0808801,0,
0.0090332,-0.000671387,-0.0012207,0,0,0,0,0,0,0,0,1.82838,1.16341,0.0840571,0,
0.00158691,6.10352E-05,-0.00854492,0,0,0,0,0,0,0,0,1.78621,1.20949,0.0856272,0,
-0.00390625,-0.00158691,-0.0115967,0,0,0,0,0,0,0,0,1.68204,1.18758,0.0876728,0,
-0.00372314,-0.00396729,-0.00671387,0,0,0,0,0,0,0,0,1.64124,1.18943,0.0928215,0,
-0.00457764,-0.00366211,-0.00396729,0,0,0,0,0,0,0,0,1.66999,1.1545,0.104237,0,
0.00256348,-0.00354004,-0.00640869,0,0,0,0,0,0,0,0,1.69666,1.10366,0.106084,0,
0.0125732,-0.000793457,0.00183105,0,0,0,0,0,0,0,0,1.60398,1.09503,0.10686,0,
0.0123291,0.00134277,0.000915527,0,0,0,0,0,0,0,0,1.50391,1.11129,0.103323,0,
0.000976562,0.00366211,0.00854492,0,0,0,0,0,0,0,0,1.36411,1.16918,0.104474,0,
-0.00189209,0.00219727,-0.00915527,0,0,0,0,0,0,0,0,1.58071,1.16948,0.119754,0,
-0.00238037,-0.000183105,-0.0250244,0,0,0,0,0,0,0,0,1.73158,1.20028,0.134959,0,
-0.00244141,-0.000427246,-0.020752,0,0,0,0,0,0,0,0,1.9,1.22707,0.136998,0,
-0.000671387,-0.000976562,-0.0115967,0,0,0,0,0,0,0,0,1.79786,1.23845,0.131038,0,
-0.00671387,-0.000244141,0.00732422,0,0,0,0,0,0,0,0,1.82487,1.16963,0.135108,0,
-0.00213623,0.00299072,0.0146484,0,0,0,0,0,0,0,0,2.01337,1.11424,0.146631,0,
0.00152588,0.00268555,0.0125122,0,0,0,0,0,0,0,0,2.06075,1.11004,0.154501,0,
-0.000793457,-0.000549316,-0.0012207,0,0,0,0,0,0,0,0,1.97642,1.13359,0.158308,0,
0.000366211,-0.0032959,-0.00640869,0,0,0,0,0,0,0,0,2.01914,1.09042,0.155705,0,
-6.10352E-05,-0.00506592,-0.0164795,0,0,0,0,0,0,0,0,2.03157,1.03087,0.156217,0,
-0.00488281,-0.00689697,-0.0125122,0,0,0,0,0,0,0,0,2.07479,0.928732,0.159051,0,
-0.00518799,-0.00561523,-0.0088501,0,0,0,0,0,0,0,0,2.03234,0.901845,0.164331,0,
-0.00567627,-0.00494385,-0.0137329,0,0,0,0,0,0,0,0,2.12732,0.864735,0.173349,0,
-0.00592041,-0.00421143,-0.0289917,0,0,0,0,0,0,0,0,2.23,0.889649,0.179506,0,
-0.00280762,-0.00427246,-0.0378418,0,0,0,0,0,0,0,0,2.2945,0.864618,0.176754,0,
-0.00268555,-0.00286865,-0.0390625,0,0,0,0,0,0,0,0,2.41367,0.917165,0.166439,0,
0.00152588,-0.00341797,-0.0256348,0,0,0,0,0,0,0,0,2.40004,0.914874,0.167251,0,
0.00256348,-0.0043335,-0.00610352,0,0,0,0,0,0,0,0,2.53186,0.871756,0.1751,0,
0.00280762,-0.00317383,0.00640869,0,0,0,0,0,0,0,0,2.55427,0.816679,0.179011,0,
0,-0.00189209,0.00549316,0,0,0,0,0,0,0,0,2.62936,0.743711,0.175077,0,
0.000244141,-0.00421143,0.00671387,0,0,0,0,0,0,0,0,2.50393,0.712504,0.159915,0,
0.000976562,-0.00213623,0.00976562,0,0,0,0,0,0,0,0,2.47127,0.700216,0.145425,0,
0.000732422,-0.0010376,0.0012207,0,0,0,0,0,0,0,0,2.4398,0.667254,0.135333,0,
0.000183105,-0.00292969,-0.00946045,0,0,0,0,0,0,0,0,2.52895,0.647579,0.136915,0,
0.00335693,-0.00262451,-0.00854492,0,0,0,0,0,0,0,0,2.35125,0.68524,0.135813,0,
0.0139771,-0.00219727,0.000915527,0,0,0,0,0,0,0,0,2.24484,0.654469,0.125962,0,
0.0115967,-0.000549316,-0.000915527,0,0,0,0,0,0,0,0,2.27785,0.631288,0.117074,0,
0.0067749,-0.000488281,0,0,0,0,0,0,0,0,0,2.45271,0.639705,0.108479,0,
-0.0032959,-0.000671387,-0.00946045,0,0,0,0,0,0,0,0,2.47977,0.715874,0.105801,0,
-0.000671387,-0.000915527,-0.0146484,0,0,0,0,0,0,0,0,2.57115,0.760763,0.102897,0,
0.00262451,-0.00195312,-0.00671387,0,0,0,0,0,0,0,0,2.82566,0.761854,0.0986032,0,
-0.00360107,0.00134277,0.000305176,0,0,0,0,0,0,0,0,2.95078,0.720362,0.0967558,0,
0.000427246,0.00183105,0.0189209,0,0,0,0,0,0,0,0,2.91666,0.695732,0.0964573,0,
-0.00164795,0.00280762,0.0167847,0,0,0,0,0,0,0,0,2.86146,0.766115,0.0953427,0,
-0.00506592,0.00286865,0.0161743,0,0,0,0,0,0,0,0,2.91839,0.86553,0.0922896,0,
-0.00732422,0.0012207,0.0256348,0,0,0,0,0,0,0,0,2.77506,0.976566,0.0937282,0,
-0.00836182,0.00164795,0.0265503,0,0,0,0,0,0,0,0,2.87101,1.03272,0.0958595,0,
-0.00384521,0.00158691,0.0134277,0,0,0,0,0,0,0,0,2.85217,0.997052,0.0917405,0,
0.0055542,0.000549316,0.0106812,0,0,0,0,0,0,0,0,2.6894,1.01336,0.0947344,0,
-0.000671387,-0.00152588,-0.00183105,0,0,0,0,0,0,0,0,2.66014,1.02502,0.0969965,0,
-0.00250244,-0.0022583,-0.00976562,0,0,0,0,0,0,0,0,2.73791,1.00721,0.103771,0,
-0.00140381,-0.00152588,-0.0012207,0,0,0,0,0,0,0,0,2.7717,1.03395,0.111581,0,
-0.000244141,-0.00469971,-0.00457764,0,0,0,0,0,0,0,0,2.77477,1.06031,0.11431,0,
-0.000671387,-0.00506592,-0.0140381,0,0,0,0,0,0,0,0,2.85881,1.09776,0.110728,0,
0.00152588,-0.00427246,-0.00335693,0,0,0,0,0,0,0,0,2.86512,1.18563,0.110314,0,
0.00268555,-0.00439453,0.00335693,0,0,0,0,0,0,0,0,2.82597,1.26567,0.117396,0,
0.000671387,-0.00482178,-0.00701904,0,0,0,0,0,0,0,0,2.78591,1.26992,0.123285,0,
-0.00164795,-0.00592041,-0.0231934,0,0,0,0,0,0,0,0,2.79116,1.21176,0.127547,0,
-0.00421143,-0.00531006,-0.0292969,0,0,0,0,0,0,0,0,2.85974,1.22068,0.127195,0,
-0.00231934,-0.00396729,-0.0131226,0,0,0,0,0,0,0,0,2.6732,1.30505,0.127397,0,
-0.00158691,-0.00268555,-0.000305176,0,0,0,0,0,0,0,0,2.39586,1.38496,0.127151,0,
-0.00152588,-0.000976562,0.0219727,0,0,0,0,0,0,0,0,2.25255,1.49118,0.121424,0,
-0.00335693,-0.0020752,0.0292969,0,0,0,0,0,0,0,0,2.17227,1.51178,0.116068,0,
-0.00341797,-0.00213623,0.0164795,0,0,0,0,0,0,0,0,2.22399,1.41505,0.119863,0,
-0.0012207,-0.00195312,0.00396729,0,0,0,0,0,0,0,0,2.22328,1.399,0.133439,0,
0.00146484,-0.00195312,0.0012207,0,0,0,0,0,0,0,0,2.31884,1.30488,0.135866,0,
0.00128174,-0.00244141,0.00396729,0,0,0,0,0,0,0,0,2.23947,1.27887,0.129547,0,
0.00341797,-0.00231934,-0.00305176,0,0,0,0,0,0,0,0,2.20091,1.29596,0.126475,0,
0.003479,-0.00262451,-0.00701904,0,0,0,0,0,0,0,0,2.31013,1.2322,0.11724,0,
0.00549316,-0.00354004,-0.012207,0,0,0,0,0,0,0,0,2.33921,1.26374,0.121732,0,
0.0043335,-0.00427246,-0.0109863,0,0,0,0,0,0,0,0,2.21902,1.30854,0.1266,0,
0.00390625,-0.00439453,-0.0112915,0,0,0,0,0,0,0,0,2.15013,1.31743,0.130283,0,
0.00482178,-0.00439453,-0.0088501,0,0,0,0,0,0,0,0,2.15579,1.33872,0.133526,0,
0.00408936,-0.00463867,-0.0137329,0,0,0,0,0,0,0,0,1.95711,1.29622,0.135881,0,
0.00604248,-0.0032959,-0.0195312,0,0,0,0,0,0,0,0,2.17336,1.20664,0.134591,0,
0.00360107,-0.0020752,-0.0231934,0,0,0,0,0,0,0,0,2.28813,1.16197,0.131776,0,
0.00177002,-0.00115967,-0.0183105,0,0,0,0,0,0,0,0,2.40372,1.1692,0.128318,0,
0.00341797,-0.000427246,-0.0115967,0,0,0,0,0,0,0,0,2.33164,1.19788,0.132987,0,
0.00262451,-0.000610352,0.00213623,0,0,0,0,0,0,0,0,2.15,1.13619,0.141264,0,
0.00146484,-0.000854492,0.00518799,0,0,0,0,0,0,0,0,2.19672,1.04141,0.152149,0,
0.00158691,-0.0012207,-0.0250244,0,0,0,0,0,0,0,0,2.18191,0.959819,0.164207,0,
0.00537109,-0.000427246,-0.0219727,0,0,0,0,0,0,0,0,2.27033,0.837976,0.163342,0,
0.00494385,-0.000915527,-0.0106812,0,0,0,0,0,0,0,0,2.30033,0.85887,0.161529,0,
0.000305176,-0.00164795,-0.00335693,0,0,0,0,0,0,0,0,2.20877,0.910507,0.162358,0,
-0.00280762,-0.00109863,0.00671387,0,0,0,0,0,0,0,0,2.12899,0.850336,0.167665,0,
-0.00927734,-0.00146484,0.00854492,0,0,0,0,0,0,0,0,2.24289,0.830327,0.180026,0,
-0.00811768,-0.00268555,0.0106812,0,0,0,0,0,0,0,0,2.30664,0.858346,0.185615,0,
0.00543213,0.000183105,0.015564,0,0,0,0,0,0,0,0,2.16587,0.866091,0.185201,0,
0.00695801,0.00140381,0.0180054,0,0,0,0,0,0,0,0,2.08784,0.88885,0.188677,0,
0.00390625,0.000305176,0.010376,0,0,0,0,0,0,0,0,2.02327,0.852708,0.186703,0,
-0.000427246,0.00134277,0.00976562,0,0,0,0,0,0,0,0,1.94936,0.808497,0.175427,0,
0.00183105,0.00238037,0.0201416,0,0,0,0,0,0,0,0,1.93999,0.813469,0.165822,0,
0.00500488,0.00311279,0.0195312,0,0,0,0,0,0,0,0,1.88457,0.783361,0.162032,0,
0.00646973,0.00494385,0.000305176,0,0,0,0,0,0,0,0,1.99589,0.780736,0.159682,0,
0.00665283,0.00524902,0.00549316,0,0,0,0,0,0,0,0,1.80206,0.739714,0.15543,0,
0.00274658,0.00494385,0.00762939,0,0,0,0,0,0,0,0,1.68384,0.735476,0.151129,0,
0.00402832,0.00427246,0.0180054,0,0,0,0,0,0,0,0,1.579,0.748441,0.158391,0,
0.00537109,0.00427246,0.012207,0,0,0,0,0,0,0,0,1.4847,0.762486,0.160247,0,
0.00170898,0.00354004,0.0088501,0,0,0,0,0,0,0,0,1.4888,0.72888,0.153404,0,
-0.00421143,0.000671387,0.00915527,0,0,0,0,0,0,0,0,1.47046,0.754799,0.142083,0,
-0.00634766,-0.000610352,0.00335693,0,0,0,0,0,0,0,0,1.45856,0.807118,0.141844,0,
-0.00946045,-0.00299072,0.000305176,0,0,0,0,0,0,0,0,1.42139,0.854356,0.152988,0,
-0.00952148,-0.00421143,-0.00244141,0,0,0,0,0,0,0,0,1.3983,0.829298,0.161528,0,
-0.00946045,-0.00598145,-0.00640869,0,0,0,0,0,0,0,0,1.39341,0.793622,0.157212,0,
-0.00610352,-0.0055542,-0.00610352,0,0,0,0,0,0,0,0,1.4276,0.811535,0.139065,0,
-0.00360107,-0.00427246,-0.0180054,0,0,0,0,0,0,0,0,1.31467,0.764125,0.119415,0,
0.000854492,-0.003479,-0.0204468,0,0,0,0,0,0,0,0,1.18958,0.697506,0.114227,0,
0.00152588,-0.00463867,-0.0274658,0,0,0,0,0,0,0,0,1.30787,0.685497,0.114966,0,
0.000427246,-0.0045166,-0.00518799,0,0,0,0,0,0,0,0,1.31588,0.674232,0.114302,0,
0.00561523,-0.00518799,0.00671387,0,0,0,0,0,0,0,0,1.29943,0.699381,0.107028,0,
0.00585938,-0.00164795,-0.000915527,0,0,0,0,0,0,0,0,1.30409,0.768061,0.105692,0,
0.00299072,-0.000610352,0.000915527,0,0,0,0,0,0,0,0,1.2323,0.732326,0.101564,0,
0.00640869,-0.0010376,0.00518799,0,0,0,0,0,0,0,0,1.13045,0.753635,0.099627,0,
0.00164795,-6.10352E-05,0.0012207,0,0,0,0,0,0,0,0,0.991782,0.759345,0.103707,0,
-0.00109863,0.000671387,-0.00396729,0,0,0,0,0,0,0,0,1.07786,0.741181,0.113052,0,
-0.00170898,-0.00115967,-0.0106812,0,0,0,0,0,0,0,0,1.11938,0.700777,0.11364,0,
0,-0.00231934,-0.00274658,0,0,0,0,0,0,0,0,1.08074,0.711456,0.106272,0,
0.000366211,-0.00299072,0.00305176,0,0,0,0,0,0,0,0,1.0999,0.734421,0.111911,0,
0.000488281,-0.00445557,0.00549316,0,0,0,0,0,0,0,0,1.07718,0.81172,0.12583,0,
-0.000366211,-0.00598145,0.00213623,0,0,0,0,0,0,0,0,1.06341,0.789562,0.126117,0,
-0.00445557,-0.00701904,-0.0125122,0,0,0,0,0,0,0,0,1.15794,0.73554,0.121823,0,
-0.00128174,-0.00787354,-0.0146484,0,0,0,0,0,0,0,0,1.23667,0.697143,0.124117,0,
0.00878906,-0.00415039,-0.0119019,0,0,0,0,0,0,0,0,1.3171,0.686763,0.120805,0,
0.00592041,-0.00183105,-0.00610352,0,0,0,0,0,0,0,0,1.32538,0.700288,0.114827,0,
-0.00231934,-0.00177002,-0.00213623,0,0,0,0,0,0,0,0,1.43556,0.71825,0.114403,0,
-0.00146484,-0.000793457,-0.0119019,0,0,0,0,0,0,0,0,1.5625,0.824784,0.114915,0,
0.00604248,0.00115967,-0.0115967,0,0,0,0,0,0,0,0,1.50865,0.879913,0.114587,0,
0.00372314,0.000854492,-0.00457764,0,0,0,0,0,0,0,0,1.38992,0.921945,0.113378,0,
-0.0012207,0.00164795,0,0,0,0,0,0,0,0,0,1.35015,0.969435,0.110474,0,
-0.00408936,0.00286865,0.00305176,0,0,0,0,0,0,0,0,1.45215,0.959397,0.110441,0,
-0.00128174,0.00183105,0.00183105,0,0,0,0,0,0,0,0,1.45448,0.904077,0.109056,0,
0.00323486,0.00152588,0.0012207,0,0,0,0,0,0,0,0,1.43621,0.891712,0.10967,0,
0.00115967,0.000305176,-0.00213623,0,0,0,0,0,0,0,0,1.51609,0.934182,0.11387,0,
0.00427246,0.000793457,-0.00305176,0,0,0,0,0,0,0,0,1.56517,0.985964,0.111628,0,
0.00305176,0.000610352,0.0137329,0,0,0,0,0,0,0,0,1.47517,1.0718,0.103719,0,
0.000610352,-0.00189209,0.0164795,0,0,0,0,0,0,0,0,1.50691,1.11227,0.10508,0,
0,-0.00195312,0.0137329,0,0,0,0,0,0,0,0,1.60375,1.10999,0.103316,0,
0.00250244,-0.000183105,0.010376,0,0,0,0,0,0,0,0,1.70561,1.10241,0.0854532,0,
-0.00372314,0.000915527,0.0183105,0,0,0,0,0,0,0,0,1.73259,1.05494,0.0686322,0,
-0.00372314,0.00268555,0.0262451,0,0,0,0,0,0,0,0,1.75134,1.0276,0.0763021,0,
-0.00402832,0.00280762,0.0201416,0,0,0,0,0,0,0,0,1.83958,1.07387,0.0738483,0,
-0.00482178,0.000427246,0.00518799,0,0,0,0,0,0,0,0,1.93435,1.13446,0.0631217,0,
-0.00408936,-0.00274658,-0.0131226,0,0,0,0,0,0,0,0,2.04145,1.22967,0.0545696,0,
-0.00244141,-0.00354004,-0.012207,0,0,0,0,0,0,0,0,2.1474,1.30435,0.0542287,0,
0.000427246,-0.00286865,0.00427246,0,0,0,0,0,0,0,0,2.0374,1.30651,0.0610536,0,
0.00286865,-0.00482178,-0.00335693,0,0,0,0,0,0,0,0,2.01811,1.20186,0.0690339,0,
0.00256348,-0.00439453,-0.00732422,0,0,0,0,0,0,0,0,2.02263,1.19907,0.0829049,0,
0.00341797,-0.00244141,-0.000610352,0,0,0,0,0,0,0,0,2.04277,1.17965,0.0837024,0,
0.00500488,-0.000915527,-0.00457764,0,0,0,0,0,0,0,0,2.15236,1.15763,0.0843863,0,
0.00537109,-0.00366211,-0.00762939,0,0,0,0,0,0,0,0,2.23688,1.18675,0.0869865,0,
0.0055542,-0.00500488,-0.00915527,0,0,0,0,0,0,0,0,2.34109,1.24461,0.084515,0,
0.00366211,-0.00787354,-0.0012207,0,0,0,0,0,0,0,0,2.50252,1.31975,0.0873378,0,
0.00256348,-0.00695801,-0.017395,0,0,0,0,0,0,0,0,2.43869,1.33163,0.089367,0,
0.000244141,-0.00738525,-0.0311279,0,0,0,0,0,0,0,0,2.46207,1.36348,0.092979,0,
0.00158691,-0.00762939,-0.0378418,0,0,0,0,0,0,0,0,2.53797,1.33876,0.0919034,0,
-0.000854492,-0.00732422,-0.0247192,0,0,0,0,0,0,0,0,2.51783,1.31802,0.0860581,0,
0.003479,-0.00634766,-0.00427246,0,0,0,0,0,0,0,0,2.5667,1.25177,0.0848845,0,
0.00622559,-0.00469971,0.00396729,0,0,0,0,0,0,0,0,2.542,1.23972,0.0889782,0,
0.00280762,-0.00549316,-0.00396729,0,0,0,0,0,0,0,0,2.60015,1.30404,0.0887734,0,
-0.00146484,-0.00427246,0.010376,0,0,0,0,0,0,0,0,2.69789,1.41592,0.081744,0,
-0.000366211,-0.00170898,0.00732422,0,0,0,0,0,0,0,0,2.47139,1.50806,0.0809872,0,
0.00488281,0.000488281,0.0131226,0,0,0,0,0,0,0,0,2.46516,1.49573,0.0811158,0,
0.00341797,-0.000244141,0.0152588,0,0,0,0,0,0,0,0,2.46807,1.37998,0.0832864,0,
0.000366211,-0.00292969,0.0180054,0,0,0,0,0,0,0,0,2.43727,1.29561,0.0822872,0,
0.0012207,-0.00311279,0.0106812,0,0,0,0,0,0,0,0,2.42891,1.25502,0.0763046,0,
0.00152588,-0.00280762,-0.000305176,0,0,0,0,0,0,0,0,2.3691,1.31903,0.0684254,0,
-0.00268555,-0.00170898,0.00213623,0,0,0,0,0,0,0,0,2.39631,1.31893,0.0581104,0,
0.000305176,-0.00134277,0.00610352,0,0,0,0,0,0,0,0,2.37923,1.38005,0.0540999,0,
0.00488281,-0.00238037,-0.0192261,0,0,0,0,0,0,0,0,2.50763,1.47901,0.0528256,0,
0.00915527,-6.10352E-05,-0.0335693,0,0,0,0,0,0,0,0,2.4686,1.47947,0.0494688,0,
0.0134888,-0.00128174,-0.0274658,0,0,0,0,0,0,0,0,2.40465,1.43836,0.0517435,0,
0.0118408,-0.00231934,-0.0186157,0,0,0,0,0,0,0,0,2.38679,1.35548,0.0545239,0,
0.00524902,-0.00012207,0.00152588,0,0,0,0,0,0,0,0,2.41291,1.30618,0.0532499,0,
-0.00244141,0.00158691,0.0180054,0,0,0,0,0,0,0,0,2.37679,1.28269,0.0498397,0,
-0.00866699,0.00109863,0.0219727,0,0,0,0,0,0,0,0,2.34428,1.36053,0.0543414,0,
-0.00805664,0.000793457,0.0204468,0,0,0,0,0,0,0,0,2.26577,1.45469,0.0566544,0,
-0.00775146,0.00195312,0.0164795,0,0,0,0,0,0,0,0,2.16964,1.5475,0.0565735,0,
-0.00939941,0.000183105,0.0149536,0,0,0,0,0,0,0,0,2.11425,1.52716,0.0527179,0,
-0.00933838,-0.000671387,0.0088501,0,0,0,0,0,0,0,0,2.03525,1.4907,0.0552432,0,
-0.0057373,-0.000671387,0.00488281,0,0,0,0,0,0,0,0,1.95482,1.49557,0.0630994,0,
-0.00866699,-0.00177002,0.00183105,0,0,0,0,0,0,0,0,1.95137,1.48652,0.0617016,0,
-0.00610352,-0.00213623,0.00274658,0,0,0,0,0,0,0,0,1.89146,1.47427,0.0626446,0,
0.0012207,-0.00262451,0.00518799,0,0,0,0,0,0,0,0,1.76266,1.48101,0.0683086,0,
-0.00323486,-0.00012207,0.00488281,0,0,0,0,0,0,0,0,1.72764,1.47982,0.0698681,0,
-0.00195312,0.0022583,-0.0149536,0,0,0,0,0,0,0,0,1.74161,1.5039,0.0683837,0,
-0.00622559,-0.000488281,-0.0198364,0,0,0,0,0,0,0,0,1.63483,1.47325,0.0692929,0,
-0.0057373,-0.000488281,-0.0189209,0,0,0,0,0,0,0,0,1.59591,1.44207,0.0685969,0,
0.00958252,0.000183105,-0.0177002,0,0,0,0,0,0,0,0,1.66945,1.41455,0.0703936,0,
0.0151367,0.00140381,-0.0088501,0,0,0,0,0,0,0,0,1.581,1.29647,0.0707556,0,
0.00799561,0.00140381,-0.00244141,0,0,0,0,0,0,0,0,1.55077,1.26067,0.072802,0,
-0.000793457,0.000488281,-0.00396729,0,0,0,0,0,0,0,0,1.50394,1.29393,0.0765871,0,
-0.0010376,-0.00012207,-0.000610352,0,0,0,0,0,0,0,0,1.36334,1.29361,0.0710468,0,
-0.000366211,-0.00158691,0.00640869,0,0,0,0,0,0,0,0,1.45043,1.3298,0.0671367,0,
0.00628662,-0.0012207,0.00640869,0,0,0,0,0,0,0,0,1.49231,1.31178,0.0805319,0,
0.00695801,-0.000793457,0.0244141,0,0,0,0,0,0,0,0,1.54457,1.20914,0.0868137,0,
0.00512695,-0.000305176,0.0100708,0,0,0,0,0,0,0,0,1.52662,1.07758,0.089421,0,
0.00195312,0.00238037,0.0088501,0,0,0,0,0,0,0,0,1.43717,0.97391,0.0884895,0,
-0.00311279,0.00250244,0.00732422,0,0,0,0,0,0,0,0,1.43511,0.960153,0.0936836,0,
-0.00518799,0.00128174,0.00366211,0,0,0,0,0,0,0,0,1.46705,0.938304,0.0911756,0,
-0.00653076,-0.000610352,-0.00183105,0,0,0,0,0,0,0,0,1.43927,0.805617,0.0849415,0,
-0.00830078,-0.0020752,-0.015564,0,0,0,0,0,0,0,0,1.57479,0.746783,0.0888638,0,
-0.0078125,-0.00427246,-0.0131226,0,0,0,0,0,0,0,0,1.45144,0.82347,0.0987572,0,
-0.00616455,-0.00518799,-0.00274658,0,0,0,0,0,0,0,0,1.3584,0.876346,0.108372,0,
-0.00732422,-0.00463867,0.00152588,0,0,0,0,0,0,0,0,1.31983,0.888623,0.114161,0,
-0.00445557,-0.00354004,-0.00213623,0,0,0,0,0,0,0,0,1.29197,0.872022,0.120918,0,
-0.00445557,-0.00488281,-0.00213623,0,0,0,0,0,0,0,0,1.45749,0.856887,0.124285,0,
-0.000854492,-0.00476074,-0.00549316,0,0,0,0,0,0,0,0,1.60619,0.872292,0.122858,0,
-0.0012207,-0.00524902,0.00244141,0,0,0,0,0,0,0,0,1.59499,0.912662,0.131219,0,
6.10352E-05,-0.00488281,0.00183105,0,0,0,0,0,0,0,0,1.51011,0.941383,0.147566,0,
0.00665283,-0.00518799,-0.000305176,0,0,0,0,0,0,0,0,1.61776,1.00024,0.167112,0,
0.00665283,-0.00592041,-0.00213623,0,0,0,0,0,0,0,0,1.87522,0.981969,0.183365,0,
0.00604248,-0.00598145,-0.0100708,0,0,0,0,0,0,0,0,2.08874,0.984404,0.19064,0,
0.00738525,-0.00457764,-0.0140381,0,0,0,0,0,0,0,0,2.03859,0.937549,0.194882,0,
0.0115967,-0.00372314,-0.010376,0,0,0,0,0,0,0,0,2.01997,0.916005,0.195125,0,
0.00750732,-0.00323486,-0.00213623,0,0,0,0,0,0,0,0,1.91969,0.948436,0.200807,0,
0.00280762,-0.00262451,-0.00396729,0,0,0,0,0,0,0,0,2.04517,1.03969,0.20475,0,
-0.000488281,-0.0022583,0.00335693,0,0,0,0,0,0,0,0,2.26922,1.06454,0.212235,0,
-0.00152588,0.000732422,0.00183105,0,0,0,0,0,0,0,0,2.36465,1.08379,0.212048,0,
-0.00134277,0.00134277,0.000305176,0,0,0,0,0,0,0,0,2.3391,1.05285,0.211626,0,
0.0010376,0.0010376,-0.00213623,0,0,0,0,0,0,0,0,2.38177,1.10922,0.209429,0,
-0.00012207,-0.000427246,0.00488281,0,0,0,0,0,0,0,0,2.2919,1.13203,0.203502,0,
0.000427246,-0.000915527,0.017395,0,0,0,0,0,0,0,0,2.32718,1.12616,0.189586,0,
0.00311279,0.00170898,0.00549316,0,0,0,0,0,0,0,0,2.34524,1.07167,0.172169,0,
-0.00378418,0.00213623,-0.0109863,0,0,0,0,0,0,0,0,2.39509,1.09564,0.173495,0,
-0.00592041,0.00128174,-0.00427246,0,0,0,0,0,0,0,0,2.43524,1.08963,0.172433,0,
-0.00738525,0.00219727,0.00671387,0,0,0,0,0,0,0,0,2.25743,1.07971,0.180036,0,
-0.0078125,6.10352E-05,0.0100708,0,0,0,0,0,0,0,0,2.34114,1.04241,0.190474,0,
-0.00421143,-6.10352E-05,0.0125122,0,0,0,0,0,0,0,0,2.55211,0.969073,0.182495,0,
0.00158691,0.000610352,0.0158691,0,0,0,0,0,0,0,0,2.58376,0.920382,0.17083,0,
0.00164795,0.000793457,0.0167847,0,0,0,0,0,0,0,0,2.58939,0.86131,0.156084,0,
0.00201416,0.000183105,0.0195312,0,0,0,0,0,0,0,0,2.61455,0.845944,0.141869,0,
0.00140381,0.000244141,0.00732422,0,0,0,0,0,0,0,0,2.68514,0.873378,0.139623,0,
0.000305176,0.00109863,0.00579834,0,0,0,0,0,0,0,0,2.61953,0.897339,0.135024,0,
0.00219727,0.0032959,0.00305176,0,0,0,0,0,0,0,0,2.68745,0.903464,0.129548,0,
0.00854492,-0.000183105,-0.0134277,0,0,0,0,0,0,0,0,2.87094,0.873823,0.114254,0,
0.00360107,-0.00201416,-0.0158691,0,0,0,0,0,0,0,0,2.87874,0.792035,0.109066,0,
-0.000244141,-0.00219727,-0.0170898,0,0,0,0,0,0,0,0,2.74426,0.818481,0.101168,0,
0.00439453,-0.00445557,-0.00854492,0,0,0,0,0,0,0,0,2.64372,0.849949,0.096577,0,
0.00366211,-0.00531006,0.000915527,0,0,0,0,0,0,0,0,2.66414,0.885632,0.0995572,0,
0.00585938,-0.00341797,0.00579834,0,0,0,0,0,0,0,0,2.6004,0.867372,0.108113,0,
0.0165405,-0.00195312,-0.000610352,0,0,0,0,0,0,0,0,2.62275,0.765374,0.117413,0,
0.00445557,0.00109863,0.00335693,0,0,0,0,0,0,0,0,2.65809,0.648354,0.126251,0,
-0.00311279,0,0.00457764,0,0,0,0,0,0,0,0,2.71263,0.67432,0.133447,0,
-0.00427246,-0.00012207,-0.000915527,0,0,0,0,0,0,0,0,2.70094,0.64358,0.125417,0,
-0.0116577,0.000854492,0.0128174,0,0,0,0,0,0,0,0,2.65387,0.62493,0.122391,0,
-0.00720215,0.00213623,0.0189209,0,0,0,0,0,0,0,0,2.80337,0.628742,0.112524,0,
0.00653076,0.00305176,0.0115967,0,0,0,0,0,0,0,0,2.71485,0.630952,0.107216,0,
0.00561523,0.0022583,0.0216675,0,0,0,0,0,0,0,0,2.66918,0.593748,0.112217,0,
-0.00158691,0.00128174,0.0158691,0,0,0,0,0,0,0,0,2.63652,0.624007,0.114478,0,
-0.00213623,0,-0.00213623,0,0,0,0,0,0,0,0,2.42817,0.629922,0.116273,0,
-0.000671387,-0.00177002,-0.012207,0,0,0,0,0,0,0,0,2.21417,0.627412,0.110346,0,
-0.0012207,-0.000305176,-0.0186157,0,0,0,0,0,0,0,0,2.05137,0.604903,0.105733,0,
6.10352E-05,0.000854492,-0.0161743,0,0,0,0,0,0,0,0,2.1843,0.557894,0.107213,0,
-0.000976562,-0.000549316,-0.010376,0,0,0,0,0,0,0,0,2.08385,0.530163,0.105616,0,
0.00653076,-0.0022583,0.010376,0,0,0,0,0,0,0,0,1.89808,0.498253,0.109532,0,
0.0055542,-0.00146484,0.0125122,0,0,0,0,0,0,0,0,1.85636,0.534831,0.108574,0,
-0.00366211,-0.00189209,0.00305176,0,0,0,0,0,0,0,0,1.83131,0.485435,0.112125,0,
-0.00634766,-0.00390625,-0.00579834,0,0,0,0,0,0,0,0,1.83579,0.409782,0.114099,0,
-0.0113525,-0.00366211,-0.00305176,0,0,0,0,0,0,0,0,1.83371,0.378098,0.114316,0,
-0.00830078,-0.0043335,-0.0250244,0,0,0,0,0,0,0,0,1.90177,0.351145,0.110717,0,
-0.00140381,-0.00372314,-0.0421143,0,0,0,0,0,0,0,0,1.94032,0.347292,0.109807,0,
0.00421143,-0.00372314,-0.0289917,0,0,0,0,0,0,0,0,1.96366,0.405808,0.101466,0,
0.0108032,-0.00213623,-0.0311279,0,0,0,0,0,0,0,0,1.93988,0.402018,0.102665,0,
0.00854492,-0.00195312,-0.0256348,0,0,0,0,0,0,0,0,1.89254,0.382651,0.107352,0,
0.00292969,0.000366211,-0.0128174,0,0,0,0,0,0,0,0,1.8652,0.41155,0.106875,0,
-0.00146484,-0.000488281,0.0012207,0,0,0,0,0,0,0,0,1.8073,0.438433,0.105297,0,
-0.00378418,-0.000671387,0.0167847,0,0,0,0,0,0,0,0,1.74059,0.459724,0.0972285,0,
-0.00140381,-0.00274658,0.0219727,0,0,0,0,0,0,0,0,1.50248,0.49676,0.0938296,0,
0.0032959,-0.00354004,0.0234985,0,0,0,0,0,0,0,0,1.51688,0.483605,0.0910186,0,
0.00268555,-0.00439453,0.00549316,0,0,0,0,0,0,0,0,1.50257,0.456236,0.0918365,0,
0.00439453,-0.00506592,-0.0170898,0,0,0,0,0,0,0,0,1.44839,0.458458,0.0955684,0,
0.0032959,-0.00628662,-0.0167847,0,0,0,0,0,0,0,0,1.40091,0.496024,0.102973,0,
0.00109863,-0.00689697,-0.00366211,0,0,0,0,0,0,0,0,1.41815,0.61355,0.104054,0,
-0.00189209,-0.00616455,0.00183105,0,0,0,0,0,0,0,0,1.40239,0.638334,0.102283,0,
0.00201416,-0.00543213,-0.0119019,0,0,0,0,0,0,0,0,1.41965,0.670961,0.103928,0,
-0.000976562,-0.00372314,-0.000915527,0,0,0,0,0,0,0,0,1.32862,0.62001,0.115795,0,
-0.00366211,-0.000976562,0.00854492,0,0,0,0,0,0,0,0,1.3432,0.726088,0.121232,0,
-0.00512695,-0.00256348,0.00152588,0,0,0,0,0,0,0,0,1.34915,0.880525,0.123172,0,
-0.00708008,-0.00213623,0.00244141,0,0,0,0,0,0,0,0,1.42525,0.995913,0.120828,0,
-0.00531006,0.0012207,0.0137329,0,0,0,0,0,0,0,0,1.77704,1.04389,0.117436,0,
-0.00531006,0.000183105,0.0201416,0,0,0,0,0,0,0,0,1.74366,1.08716,0.112198,0,
-0.00518799,0.000976562,0.00854492,0,0,0,0,0,0,0,0,1.64326,1.04459,0.111812,0,
0.00341797,-0.00109863,-0.00671387,0,0,0,0,0,0,0,0,1.6543,1.02555,0.10537,0,
0.00891113,-0.00256348,0.00549316,0,0,0,0,0,0,0,0,1.94013,1.02178,0.108405,0,
0.00750732,-0.00323486,-0.00671387,0,0,0,0,0,0,0,0,2.04399,1.02567,0.113762,0,
0.0124512,-0.00323486,-0.00762939,0,0,0,0,0,0,0,0,2.09438,1.0686,0.118636,0,
0.0137939,-0.00195312,-0.00335693,0,0,0,0,0,0,0,0,2.14599,1.12944,0.12768,0,
0.00201416,-0.000976562,0.00762939,0,0,0,0,0,0,0,0,2.16786,1.14154,0.129008,0,
-0.00604248,-0.000183105,0.00396729,0,0,0,0,0,0,0,0,2.16096,1.14815,0.126334,0,
0.0045166,-0.00140381,0.00427246,0,0,0,0,0,0,0,0,2.20534,1.17008,0.127303,0,
0.00445557,-0.00274658,-0.0012207,0,0,0,0,0,0,0,0,2.23825,1.15732,0.132165,0,
-0.000366211,-0.00408936,-0.00610352,0,0,0,0,0,0,0,0,2.20487,1.10097,0.136182,0,
-0.00012207,-0.00463867,-0.00976562,0,0,0,0,0,0,0,0,2.08014,1.02944,0.14012,0,
-0.00518799,-0.00543213,-0.0109863,0,0,0,0,0,0,0,0,2.15885,1.02325,0.140398,0,
-0.00830078,-0.00512695,0.00305176,0,0,0,0,0,0,0,0,2.27857,0.989172,0.145893,0,
-0.00799561,-0.00274658,0.000915527,0,0,0,0,0,0,0,0,2.36178,1.01166,0.145534,0,
-0.00128174,-0.000488281,-0.0134277,0,0,0,0,0,0,0,0,2.32738,0.913539,0.146473,0,
6.10352E-05,-0.00195312,-0.0146484,0,0,0,0,0,0,0,0,2.44549,0.764953,0.151105,0,
-0.00549316,-0.00109863,-0.00213623,0,0,0,0,0,0,0,0,2.61653,0.662726,0.154235,0,
-0.00549316,-0.000366211,0.0012207,0,0,0,0,0,0,0,0,2.58275,0.619701,0.162324,0,
-0.00439453,-0.000732422,-0.00305176,0,0,0,0,0,0,0,0,2.57031,0.634861,0.168806,0,
-0.00384521,0.000549316,0.00549316,0,0,0,0,0,0,0,0,2.69846,0.618983,0.181172,0,
-0.00549316,0.00183105,0.00946045,0,0,0,0,0,0,0,0,2.89254,0.62092,0.185736,0,
-0.003479,0.000244141,0.00427246,0,0,0,0,0,0,0,0,2.9821,0.705966,0.184019,0,
0.00317383,-0.000854492,0.00732422,0,0,0,0,0,0,0,0,3.02951,0.723188,0.177264,0,
0.000549316,-0.000671387,0.012207,0,0,0,0,0,0,0,0,2.99772,0.708583,0.17977,0,
0.000427246,-0.000793457,0.00701904,0,0,0,0,0,0,0,0,3.02656,0.645894,0.177044,0,
0.00695801,0.000305176,-0.0106812,0,0,0,0,0,0,0,0,2.99794,0.619349,0.183475,0,
0.00976562,0.00244141,-0.00457764,0,0,0,0,0,0,0,0,2.94629,0.607006,0.188284,0,
0.00848389,0.00177002,0.00701904,0,0,0,0,0,0,0,0,2.97617,0.610771,0.177932,0,
0.00299072,0.000427246,0.0125122,0,0,0,0,0,0,0,0,2.96728,0.647199,0.166473,0,
0.00213623,-0.00170898,0.00701904,0,0,0,0,0,0,0,0,2.98003,0.754682,0.156013,0,
0.000488281,-0.00256348,-0.000610352,0,0,0,0,0,0,0,0,2.94744,0.80996,0.149329,0,
-0.000610352,-0.0032959,-0.00518799,0,0,0,0,0,0,0,0,2.90218,0.843124,0.154489,0,
-0.00262451,-0.0020752,0.00335693,0,0,0,0,0,0,0,0,2.8775,0.90268,0.150249,0,
-0.000549316,-0.000976562,-0.000610352,0,0,0,0,0,0,0,0,2.78302,0.897302,0.141587,0,
-0.00213623,-0.000366211,0,0,0,0,0,0,0,0,0,2.78079,0.892723,0.138155,0,
-0.00262451,0.000793457,0.00274658,0,0,0,0,0,0,0,0,2.64432,0.93271,0.137262,0,
-0.00213623,0.00134277,-0.00183105,0,0,0,0,0,0,0,0,2.36597,1.0322,0.138081,0,
-0.00268555,0.000854492,0.00396729,0,0,0,0,0,0,0,0,2.12819,1.11275,0.143555,0,
-0.0032959,0,0.000915527,0,0,0,0,0,0,0,0,2.3057,1.17231,0.142055,0,
0.00323486,-0.00146484,-0.0088501,0,0,0,0,0,0,0,0,2.29404,1.21528,0.135974,0,
0.00323486,-0.000732422,-0.0119019,0,0,0,0,0,0,0,0,2.04586,1.20423,0.140617,0,
-0.000976562,-0.00115967,-0.0314331,0,0,0,0,0,0,0,0,1.766,1.20389,0.134383,0,
-0.00402832,-0.00354004,-0.0311279,0,0,0,0,0,0,0,0,1.92716,1.25084,0.137417,0,
-0.00463867,-0.00427246,-0.0241089,0,0,0,0,0,0,0,0,2.21958,1.26923,0.139431,0,
-0.00457764,-0.00378418,-0.0112915,0,0,0,0,0,0,0,0,2.20005,1.272,0.140544,0,
0.0012207,-0.00384521,0.00549316,0,0,0,0,0,0,0,0,2.30573,1.26865,0.140851,0,
0.00567627,-0.00360107,0.00488281,0,0,0,0,0,0,0,0,2.35189,1.28448,0.1343,0,
0.00976562,-0.00390625,-0.00854492,0,0,0,0,0,0,0,0,2.30105,1.29031,0.138828,0,
0.00549316,-0.00256348,-0.0170898,0,0,0,0,0,0,0,0,2.31563,1.24611,0.146692,0,
0.00390625,-0.000488281,-0.00518799,0,0,0,0,0,0,0,0,2.27745,1.14759,0.144749,0,
0.00146484,0.00201416,-0.00366211,0,0,0,0,0,0,0,0,2.37926,1.06555,0.142599,0,
0.000488281,0.00158691,0.00274658,0,0,0,0,0,0,0,0,2.58435,1.00808,0.138561,0,
0.00109863,0.00476074,0.00488281,0,0,0,0,0,0,0,0,2.67001,0.953955,0.132437,0,
-0.00183105,0.00421143,0.00640869,0,0,0,0,0,0,0,0,2.6753,0.938084,0.132998,0,
-0.00158691,0.000305176,0.0149536,0,0,0,0,0,0,0,0,2.72738,0.944704,0.130393,0,
-0.00372314,-0.00268555,0.00274658,0,0,0,0,0,0,0,0,2.81193,0.932052,0.123799,0,
-0.00439453,-0.00201416,0.00183105,0,0,0,0,0,0,0,0,2.92383,0.818359,0.120928,0,
-0.00439453,-0.00213623,-0.000610352,0,0,0,0,0,0,0,0,2.89899,0.725513,0.111467,0,
-0.00506592,-0.00372314,-0.0109863,0,0,0,0,0,0,0,0,2.78596,0.611881,0.104726,0,
-0.00848389,-0.00341797,-0.0180054,0,0,0,0,0,0,0,0,2.71671,0.611506,0.105753,0,
-0.00585938,-0.00170898,-0.00640869,0,0,0,0,0,0,0,0,2.83767,0.63126,0.096938,0,
-0.00317383,-0.00152588,0.00274658,0,0,0,0,0,0,0,0,2.74274,0.548021,0.103852,0,
0.00152588,-0.00408936,0.00335693,0,0,0,0,0,0,0,0,2.59658,0.449504,0.107575,0,
0.00457764,-0.00549316,0,0,0,0,0,0,0,0,0,2.37859,0.401459,0.0986425,0,
0.00512695,-0.00549316,0.000305176,0,0,0,0,0,0,0,0,2.35588,0.407496,0.102056,0,
0.00158691,-0.00299072,0.00610352,0,0,0,0,0,0,0,0,2.55057,0.387208,0.0997381,0,
0.00244141,-0.00231934,0.000915527,0,0,0,0,0,0,0,0,2.61631,0.36605,0.105334,0,
0.00396729,-0.00140381,0.00183105,0,0,0,0,0,0,0,0,2.60118,0.352955,0.101255,0,
0.00482178,-0.00170898,0.00976562,0,0,0,0,0,0,0,0,2.54974,0.352263,0.0953375,0,
0.00469971,-0.00311279,0.00488281,0,0,0,0,0,0,0,0,2.61306,0.350718,0.096361,0,
0.00341797,-0.00305176,-0.00366211,0,0,0,0,0,0,0,0,2.50347,0.346095,0.0962313,0,
0.00415039,-0.00274658,-0.00610352,0,0,0,0,0,0,0,0,2.27166,0.334647,0.0889779,0,
0.00946045,-0.00134277,-0.00152588,0,0,0,0,0,0,0,0,2.10071,0.340345,0.0896468,0,
0.0136719,0.000671387,-0.0012207,0,0,0,0,0,0,0,0,2.19061,0.365541,0.0870426,0,
0.00701904,-0.000976562,0.00732422,0,0,0,0,0,0,0,0,2.17443,0.391187,0.0896006,0,
0.0136719,-0.00372314,0.000610352,0,0,0,0,0,0,0,0,2.05634,0.411065,0.0903055,0,
0.0159912,-0.003479,-0.0366211,0,0,0,0,0,0,0,0,1.95733,0.452637,0.0948802,0,
-0.00189209,-0.00158691,-0.0509644,0,0,0,0,0,0,0,0,1.83294,0.512512,0.0959823,0,
-0.0123901,-0.0022583,-0.0302124,0,0,0,0,0,0,0,0,1.87733,0.501427,0.0954675,0,
-0.0127563,-0.00164795,-0.00579834,0,0,0,0,0,0,0,0,1.9411,0.473354,0.0891624,0,
-0.0177612,-0.000549316,0.0088501,0,0,0,0,0,0,0,0,1.86634,0.473385,0.0962435,0,
-0.0152588,0.00189209,0.0152588,0,0,0,0,0,0,0,0,1.99296,0.475327,0.0981811,0,
-0.0124512,0.000976562,0.0177002,0,0,0,0,0,0,0,0,1.91756,0.504126,0.104528,0,
-0.0101929,-0.000793457,0.0161743,0,0,0,0,0,0,0,0,1.89569,0.495034,0.108187,0,
-0.00610352,-0.00323486,0.00793457,0,0,0,0,0,0,0,0,1.90968,0.540225,0.103581,0,
-0.000488281,-0.00134277,0.0088501,0,0,0,0,0,0,0,0,1.69277,0.664412,0.101435,0,
0.00195312,-0.00219727,0.00823975,0,0,0,0,0,0,0,0,1.60787,0.80659,0.0950209,0,
0.000183105,-0.00524902,0.00244141,0,0,0,0,0,0,0,0,1.6328,0.887086,0.100786,0,
0.00219727,-0.00549316,-0.00610352,0,0,0,0,0,0,0,0,1.70978,0.893432,0.100263,0,
0.00457764,-0.00506592,0.00152588,0,0,0,0,0,0,0,0,1.6461,0.972833,0.0985181,0,
0.00616455,-0.00299072,0.00305176,0,0,0,0,0,0,0,0,1.7306,1.05856,0.104389,0,
0.00299072,-0.0012207,-0.00213623,0,0,0,0,0,0,0,0,1.79847,1.26381,0.105722,0,
6.10352E-05,-0.00115967,0.00274658,0,0,0,0,0,0,0,0,1.77765,1.41925,0.108778,0,
0.00183105,0.00280762,0.00457764,0,0,0,0,0,0,0,0,1.72903,1.48765,0.114534,0,
0.00299072,0.0032959,0.0100708,0,0,0,0,0,0,0,0,1.64903,1.46327,0.110447,0,
0.00231934,0.00341797,0.00915527,0,0,0,0,0,0,0,0,1.64709,1.44296,0.111787,0,
0.0055542,0.00256348,0.00305176,0,0,0,0,0,0,0,0,1.66763,1.46989,0.108841,0,
0.00250244,-6.10352E-05,-0.00671387,0,0,0,0,0,0,0,0,1.68599,1.4952,0.109815,0,
0.00561523,-0.00268555,-0.012207,0,0,0,0,0,0,0,0,1.71126,1.57037,0.121503,0,
0.0109863,-0.00646973,-0.0372314,0,0,0,0,0,0,0,0,1.7014,1.60241,0.127671,0,
0.0128784,-0.0055542,-0.0537109,0,0,0,0,0,0,0,0,1.72383,1.60543,0.120053,0,
0.00274658,-0.00567627,-0.0363159,0,0,0,0,0,0,0,0,1.63702,1.6156,0.115786,0,
-0.00231934,-0.00579834,-0.0210571,0,0,0,0,0,0,0,0,1.68438,1.61955,0.105208,0,
-0.00500488,-0.00488281,-0.0183105,0,0,0,0,0,0,0,0,1.70162,1.62698,0.100519,0,
0.0010376,-0.00463867,-0.00305176,0,0,0,0,0,0,0,0,1.59322,1.5624,0.0954605,0,
0.00201416,-0.00537109,-0.00213623,0,0,0,0,0,0,0,0,1.58689,1.46392,0.0927758,0,
0.00469971,-0.00518799,0.00244141,0,0,0,0,0,0,0,0,1.74797,1.40447,0.0932719,0,
-0.000427246,-0.00408936,0.00213623,0,0,0,0,0,0,0,0,1.85066,1.38803,0.0951322,0,
-0.00128174,-0.000305176,0.00640869,0,0,0,0,0,0,0,0,1.92163,1.40535,0.0987384,0,
-0.00280762,0.00164795,0.0170898,0,0,0,0,0,0,0,0,2.03806,1.32029,0.10307,0,
-0.00134277,0.00231934,0.0128174,0,0,0,0,0,0,0,0,2.05994,1.20792,0.0984388,0,
0.000671387,0.00146484,-0.000915527,0,0,0,0,0,0,0,0,1.98425,1.0409,0.0991492,0,
0.00280762,0.00427246,-0.00732422,0,0,0,0,0,0,0,0,2.15446,0.880414,0.0948594,0,
0.0022583,0.00372314,-0.00976562,0,0,0,0,0,0,0,0,2.20181,0.790978,0.0900019,0,
0.000732422,0.00354004,0.00946045,0,0,0,0,0,0,0,0,2.61168,0.802914,0.0917485,0,
-0.000427246,0.00201416,0.0146484,0,0,0,0,0,0,0,0,3.0989,0.821083,0.101757,0,
-0.00408936,0.00317383,0.00854492,0,0,0,0,0,0,0,0,3.22675,0.769263,0.120791,0,
-0.00561523,0.00213623,0.0149536,0,0,0,0,0,0,0,0,3.22639,0.699434,0.126985,0,
-0.00488281,0.000488281,0.0109863,0,0,0,0,0,0,0,0,3.10206,0.625324,0.115758,0,
-0.00537109,-0.00195312,0.0106812,0,0,0,0,0,0,0,0,3.21693,0.595936,0.111622,0,
0.00402832,-0.00305176,0.00854492,0,0,0,0,0,0,0,0,3.36027,0.625534,0.117876,0,
0.00152588,-0.00256348,-0.00305176,0,0,0,0,0,0,0,0,3.60816,0.694347,0.123437,0,
-0.00274658,-0.00482178,-0.0012207,0,0,0,0,0,0,0,0,3.69634,0.767317,0.131589,0,
-0.000915527,-0.00408936,0.00549316,0,0,0,0,0,0,0,0,3.65237,0.777174,0.137085,0,
-0.0020752,-0.00482178,0.00427246,0,0,0,0,0,0,0,0,3.67003,0.826256,0.137773,0,
-0.00158691,-0.00427246,-0.00610352,0,0,0,0,0,0,0,0,3.69516,0.800495,0.134805,0,
-0.0020752,-0.00396729,-0.0119019,0,0,0,0,0,0,0,0,3.54733,0.802205,0.136064,0,
6.10352E-05,-0.00262451,-0.0134277,0,0,0,0,0,0,0,0,3.52976,0.842741,0.137433,0,
0.00128174,-0.00256348,-0.00183105,0,0,0,0,0,0,0,0,3.53059,0.926524,0.138418,0,
0.00274658,-0.00158691,0.000305176,0,0,0,0,0,0,0,0,3.64575,1.01372,0.137947,0,
0.00378418,-0.00164795,-0.000305176,0,0,0,0,0,0,0,0,3.7005,1.05331,0.141284,0,
0.00360107,-0.000671387,-0.00457764,0,0,0,0,0,0,0,0,3.71076,1.08086,0.141101,0,
0.00415039,-0.000427246,-0.010376,0,0,0,0,0,0,0,0,3.62141,1.07822,0.140948,0,
0.0032959,-0.00115967,-0.00305176,0,0,0,0,0,0,0,0,3.59255,1.13429,0.139147,0,
-0.0010376,-0.00390625,0.0012207,0,0,0,0,0,0,0,0,3.48957,1.29191,0.136448,0,
-0.00152588,-0.003479,-0.00152588,0,0,0,0,0,0,0,0,3.32622,1.41856,0.138723,0,
-0.00115967,-0.00250244,-0.00976562,0,0,0,0,0,0,0,0,3.3377,1.52838,0.136922,0,
-0.003479,0.00109863,0.00549316,0,0,0,0,0,0,0,0,3.39265,1.59483,0.140173,0,
-0.00146484,6.10352E-05,0.00488281,0,0,0,0,0,0,0,0,3.57627,1.61332,0.139121,0,
0.00128174,-0.000671387,0.000610352,0,0,0,0,0,0,0,0,3.76682,1.63876,0.152139,0,
0.00323486,-0.00170898,-0.00152588,0,0,0,0,0,0,0,0,3.74642,1.71309,0.159979,0,
-6.10352E-05,-0.00457764,0.000915527,0,0,0,0,0,0,0,0,3.55379,1.74337,0.163464,0,
-0.00152588,-0.00543213,-0.015564,0,0,0,0,0,0,0,0,3.37416,1.71191,0.163426,0,
0.00457764,-0.00701904,-0.0125122,0,0,0,0,0,0,0,0,3.2119,1.69409,0.157365,0,
0.00976562,-0.00561523,-0.0253296,0,0,0,0,0,0,0,0,3.29554,1.73395,0.155872,0,
0.00622559,-0.00396729,-0.0424194,0,0,0,0,0,0,0,0,3.19848,1.82391,0.157617,0,
0.00628662,-0.00469971,-0.0320435,0,0,0,0,0,0,0,0,3.25376,1.77683,0.159973,0,
0.00946045,-0.00488281,-0.0204468,0,0,0,0,0,0,0,0,3.19905,1.6998,0.160691,0,
0.00494385,-0.00213623,-0.0137329,0,0,0,0,0,0,0,0,3.22203,1.68533,0.16564,0,
0.00354004,-0.00152588,0.000610352,0,0,0,0,0,0,0,0,3.08469,1.68734,0.171185,0,
0.00805664,-0.00299072,-0.00152588,0,0,0,0,0,0,0,0,2.95144,1.70453,0.169316,0,
0.00518799,-0.00250244,0.0140381,0,0,0,0,0,0,0,0,3.03825,1.74072,0.17159,0,
0.00311279,-0.00299072,0.0222778,0,0,0,0,0,0,0,0,2.99387,1.7304,0.18156,0,
0.00531006,-0.00274658,0.0241089,0,0,0,0,0,0,0,0,3.03934,1.681,0.187108,0,
0.00799561,-0.000244141,0.0201416,0,0,0,0,0,0,0,0,2.77129,1.55286,0.193901,0,
0.00390625,0.000610352,0.012207,0,0,0,0,0,0,0,0,2.50707,1.37925,0.183237,0,
-0.00482178,0.00195312,0.0167847,0,0,0,0,0,0,0,0,2.3521,1.26587,0.162922,0,
0.000671387,0.00140381,0.0170898,0,0,0,0,0,0,0,0,2.31717,1.19673,0.145303,0,
-0.00268555,0.00140381,0.0292969,0,0,0,0,0,0,0,0,2.24761,1.18831,0.154687,0,
-0.010376,0.00134277,0.0231934,0,0,0,0,0,0,0,0,1.81967,1.15955,0.153574,0,
-0.00799561,0.000671387,0.0134277,0,0,0,0,0,0,0,0,1.65967,1.04547,0.142784,0,
-0.00134277,0.00170898,0.00732422,0,0,0,0,0,0,0,0,1.69938,0.984464,0.131946,0,
-0.00213623,0.00183105,-0.00732422,0,0,0,0,0,0,0,0,1.78357,0.95263,0.123868,0,
-0.00250244,0.000671387,-0.00793457,0,0,0,0,0,0,0,0,1.80655,0.972338,0.123654,0,
-0.00469971,-0.00146484,-0.00610352,0,0,0,0,0,0,0,0,1.73545,0.881322,0.12657,0,
-0.00457764,-0.00140381,-0.00274658,0,0,0,0,0,0,0,0,1.89266,0.809731,0.129772,0,
-0.00335693,-0.000427246,-0.00427246,0,0,0,0,0,0,0,0,1.8388,0.839771,0.133665,0,
-0.00177002,-0.000915527,0.000305176,0,0,0,0,0,0,0,0,1.80106,0.822176,0.12601,0,
0.000732422,0.000671387,0.0125122,0,0,0,0,0,0,0,0,1.65586,0.759467,0.122169,0,
0.000244141,0.00177002,0.00396729,0,0,0,0,0,0,0,0,1.61426,0.687382,0.115711,0,
-0.00183105,0.000854492,0.0012207,0,0,0,0,0,0,0,0,1.63435,0.686615,0.114272,0,
-0.00183105,0.00158691,0.000915527,0,0,0,0,0,0,0,0,1.5735,0.57918,0.109231,0,
0.00561523,0.00152588,0.00762939,0,0,0,0,0,0,0,0,1.52024,0.597388,0.102312,0,
0.0202637,-0.000183105,0.00549316,0,0,0,0,0,0,0,0,1.44684,0.686708,0.0947576,0,
0.0128784,0.000671387,0,0,0,0,0,0,0,0,0,1.47132,0.710759,0.0878722,0,
0.00189209,0.00012207,-0.010376,0,0,0,0,0,0,0,0,1.42107,0.815764,0.086217,0,
-0.00408936,-0.000549316,-0.00793457,0,0,0,0,0,0,0,0,1.46281,0.805646,0.0885914,0,
-0.00512695,0.00164795,-0.00427246,0,0,0,0,0,0,0,0,1.43703,0.797968,0.0933065,0,
-0.000854492,0.00177002,0.00549316,0,0,0,0,0,0,0,0,1.28405,0.886603,0.090015,0,
-0.00445557,0.000915527,0.0128174,0,0,0,0,0,0,0,0,1.31843,0.948675,0.0836668,0,
-0.0043335,-0.0022583,-0.012207,0,0,0,0,0,0,0,0,1.35453,0.956463,0.0932567,0,
-0.00653076,-0.00384521,-0.0436401,0,0,0,0,0,0,0,0,1.28999,0.927047,0.0941853,0,
-0.00494385,-0.00476074,-0.043335,0,0,0,0,0,0,0,0,1.14272,0.931281,0.0945395,0,
-0.00299072,-0.00598145,-0.0228882,0,0,0,0,0,0,0,0,1.25307,0.882062,0.102384,0,
-0.00457764,-0.00823975,-0.0112915,0,0,0,0,0,0,0,0,1.25653,0.891824,0.112021,0,
-0.00317383,-0.00946045,-0.0183105,0,0,0,0,0,0,0,0,1.17745,0.881489,0.116038,0,
0.00195312,-0.00970459,-0.0131226,0,0,0,0,0,0,0,0,1.22458,0.812793,0.116129,0,
0.00732422,-0.0088501,0,0,0,0,0,0,0,0,0,1.20763,0.8234,0.123362,0,
0.00872803,-0.00744629,-0.0109863,0,0,0,0,0,0,0,0,1.22503,0.811313,0.120599,0,
0.00775146,-0.00512695,-0.0137329,0,0,0,0,0,0,0,0,1.14799,0.801817,0.124832,0,
-0.00158691,-0.00445557,-0.0180054,0,0,0,0,0,0,0,0,1.18331,0.76716,0.12869,0,
-0.00177002,-0.00286865,-0.00549316,0,0,0,0,0,0,0,0,1.23406,0.855636,0.137683,0,
-0.00274658,-0.00317383,-0.00152588,0,0,0,0,0,0,0,0,1.27579,0.915193,0.14423,0,
-0.00445557,-0.00164795,0.00854492,0,0,0,0,0,0,0,0,1.35857,0.816939,0.148345,0,
-0.00360107,-0.000366211,0.0143433,0,0,0,0,0,0,0,0,1.3629,0.757972,0.149494,0,
-0.0045166,-0.00262451,0.0201416,0,0,0,0,0,0,0,0,1.37691,0.689292,0.15086,0,
-0.0043335,-0.00280762,0.0088501,0,0,0,0,0,0,0,0,1.49835,0.708266,0.148963,0,
-0.00646973,-0.00482178,-0.00427246,0,0,0,0,0,0,0,0,1.51994,0.708154,0.149611,0,
-0.00213623,-0.00567627,-0.00488281,0,0,0,0,0,0,0,0,1.60373,0.628876,0.145253,0,
0.00750732,-0.00482178,-0.00244141,0,0,0,0,0,0,0,0,1.68629,0.570616,0.136326,0,
0.00933838,-0.00189209,0.00152588,0,0,0,0,0,0,0,0,1.66346,0.597563,0.125047,0,
0.0105591,0.0010376,0.00335693,0,0,0,0,0,0,0,0,1.69742,0.648334,0.128269,0,
0.00762939,0.00219727,0.00396729,0,0,0,0,0,0,0,0,1.73993,0.68928,0.135273,0,
-0.00158691,0.00305176,0.00152588,0,0,0,0,0,0,0,0,1.68617,0.703053,0.134404,0,
-0.00994873,0.00482178,-0.0177002,0,0,0,0,0,0,0,0,1.66194,0.701516,0.123363,0,
-0.00482178,0.00598145,-0.022583,0,0,0,0,0,0,0,0,1.6535,0.692822,0.112123,0,
0.000549316,0.0032959,-0.00732422,0,0,0,0,0,0,0,0,1.6516,0.714663,0.107486,0,
0.00439453,0,0.00732422,0,0,0,0,0,0,0,0,1.645,0.713631,0.104167,0,
0.00250244,6.10352E-05,0.00976562,0,0,0,0,0,0,0,0,1.60076,0.715089,0.100493,0,
0.00189209,0.00201416,0.0167847,0,0,0,0,0,0,0,0,1.76052,0.730011,0.0965772,0,
0.00177002,0.00134277,0.0161743,0,0,0,0,0,0,0,0,1.80738,0.712425,0.093245,0,
0.00170898,0.000244141,0.0119019,0,0,0,0,0,0,0,0,1.72889,0.631911,0.0851653,0,
0.000610352,-6.10352E-05,-0.00915527,0,0,0,0,0,0,0,0,2.04424,0.561348,0.0748347,0,
-0.00311279,-0.000671387,-0.00732422,0,0,0,0,0,0,0,0,2.09354,0.55954,0.0700226,0,
-0.00476074,-0.00189209,-0.00946045,0,0,0,0,0,0,0,0,2.13747,0.564696,0.0692023,0,
-0.00537109,-0.00323486,-0.00427246,0,0,0,0,0,0,0,0,2.14294,0.572663,0.0642277,0,
-0.0067749,-0.00488281,-0.0109863,0,0,0,0,0,0,0,0,2.08284,0.558525,0.0627926,0,
-0.00384521,-0.00476074,-0.0332642,0,0,0,0,0,0,0,0,2.05535,0.588962,0.0592444,0,
-0.00390625,-0.00524902,-0.0305176,0,0,0,0,0,0,0,0,1.95592,0.643169,0.0644952,0,
-0.00195312,-0.00439453,-0.00946045,0,0,0,0,0,0,0,0,1.80863,0.667265,0.0642998,0,
6.10352E-05,-0.00396729,0.00274658,0,0,0,0,0,0,0,0,1.91254,0.643168,0.07312,0,
-0.00262451,-0.00274658,0.00549316,0,0,0,0,0,0,0,0,1.93322,0.567298,0.0741542,0,
-0.00592041,-0.00311279,0.00946045,0,0,0,0,0,0,0,0,2.0034,0.486216,0.0659903,0,
0.00335693,-0.00280762,0.0143433,0,0,0,0,0,0,0,0,2.04846,0.477706,0.0627046,0,
0.0141602,-0.00335693,0.00793457,0,0,0,0,0,0,0,0,2.08587,0.497912,0.0619874,0,
0.015625,-0.00378418,0.00427246,0,0,0,0,0,0,0,0,2.06351,0.564555,0.0689698,0,
0.0115967,-0.00274658,0.00457764,0,0,0,0,0,0,0,0,2.1479,0.582516,0.0747306,0,
0.00793457,-0.00256348,0.0012207,0,0,0,0,0,0,0,0,2.38972,0.606351,0.0690934,0,
0.00213623,-0.00305176,-0.00213623,0,0,0,0,0,0,0,0,2.69298,0.59301,0.0690408,0,
0.00292969,-0.00354004,0.0012207,0,0,0,0,0,0,0,0,2.66874,0.580933,0.0717381,0,
0.00787354,-0.00292969,0.00732422,0,0,0,0,0,0,0,0,2.74282,0.624887,0.0721163,0,
0.00585938,-0.000427246,0.00274658,0,0,0,0,0,0,0,0,2.76729,0.657204,0.0772596,0,
-0.000244141,6.10352E-05,0.00518799,0,0,0,0,0,0,0,0,2.78656,0.773001,0.0763482,0,
-0.00280762,-0.00170898,0.00518799,0,0,0,0,0,0,0,0,2.95878,0.881816,0.0797361,0,
-0.00213623,0,0.00335693,0,0,0,0,0,0,0,0,3.10468,0.92589,0.0905426,0,
0.000793457,-6.10352E-05,0.00610352,0,0,0,0,0,0,0,0,3.17585,0.918732,0.0963351,0,
-0.00402832,-0.000854492,0.00457764,0,0,0,0,0,0,0,0,3.23016,0.997678,0.0963492,0,
-0.00256348,0.000244141,-0.00366211,0,0,0,0,0,0,0,0,3.33016,1.12802,0.104387,0,
0.00238037,-0.00152588,-0.017395,0,0,0,0,0,0,0,0,3.5013,1.2638,0.11138,0,
0.00476074,-0.00256348,-0.0265503,0,0,0,0,0,0,0,0,3.72909,1.35231,0.11761,0,
-0.000427246,-0.0022583,-0.0201416,0,0,0,0,0,0,0,0,3.95396,1.39434,0.111659,0,
-0.00341797,-0.00305176,-0.0115967,0,0,0,0,0,0,0,0,4.12734,1.41562,0.114385,0,
0.00244141,-0.00177002,0.000610352,0,0,0,0,0,0,0,0,4.07334,1.43608,0.11738,0,
0.00579834,-0.000183105,0.0137329,0,0,0,0,0,0,0,0,4.0702,1.55104,0.120417,0,
0.00408936,0.000183105,0.0170898,0,0,0,0,0,0,0,0,4.07088,1.69931,0.125437,0,
0.000366211,0.00164795,0.0186157,0,0,0,0,0,0,0,0,4.12408,1.77494,0.124834,0,
-0.00146484,0.0020752,0.0161743,0,0,0,0,0,0,0,0,3.9884,1.80275,0.11852,0,
-0.00128174,6.10352E-05,0.0137329,0,0,0,0,0,0,0,0,3.89874,1.76577,0.119361,0,
-0.00445557,0.00158691,0.00701904,0,0,0,0,0,0,0,0,3.6733,1.76976,0.129812,0,
-0.00164795,0.00183105,0,0,0,0,0,0,0,0,0,3.58521,1.75823,0.138665,0,
0.000427246,-0.000366211,0.00732422,0,0,0,0,0,0,0,0,3.46116,1.74304,0.150007,0,
-0.00128174,-0.00238037,0.00610352,0,0,0,0,0,0,0,0,3.49192,1.71423,0.145781,0,
-0.00012207,-0.00378418,-0.000610352,0,0,0,0,0,0,0,0,3.09859,1.63314,0.146697,0,
-0.00366211,-0.00262451,0.00671387,0,0,0,0,0,0,0,0,2.77452,1.6011,0.150185,0,
-0.00354004,-0.00305176,-0.00274658,0,0,0,0,0,0,0,0,2.52926,1.5855,0.142007,0,
-0.0010376,-0.00115967,0,0,0,0,0,0,0,0,0,2.44604,1.63205,0.143806,0,
0.0055542,0.000488281,0.000305176,0,0,0,0,0,0,0,0,2.40226,1.5678,0.157226,0,
0.00897217,0.00012207,-0.00732422,0,0,0,0,0,0,0,0,2.30522,1.41003,0.162382,0,
0.000183105,-0.000915527,-0.00976562,0,0,0,0,0,0,0,0,2.16753,1.23195,0.154953,0,
-0.00653076,-0.00012207,-0.00854492,0,0,0,0,0,0,0,0,2.05714,1.12476,0.151438,0,
-0.010498,0.0010376,0,0,0,0,0,0,0,0,0,1.91987,1.09753,0.147695,0,
-0.00860596,-0.000732422,0.00518799,0,0,0,0,0,0,0,0,2.00279,1.09837,0.14133,0,
-0.00921631,-0.00286865,-0.00610352,0,0,0,0,0,0,0,0,1.93704,1.11052,0.144447,0,
-0.0057373,-0.00311279,-0.00915527,0,0,0,0,0,0,0,0,2.17179,0.997927,0.150001,0,
0.0012207,-0.00500488,-0.0131226,0,0,0,0,0,0,0,0,2.52481,0.84908,0.157533,0,
0.000549316,-0.0043335,-0.0125122,0,0,0,0,0,0,0,0,2.69805,0.716218,0.158866,0,
0.00476074,-0.003479,-0.00976562,0,0,0,0,0,0,0,0,2.74975,0.704787,0.156314,0,
0.0109863,-0.00561523,-0.0183105,0,0,0,0,0,0,0,0,2.66561,0.712994,0.159031,0,
0.0152588,-0.0055542,-0.00640869,0,0,0,0,0,0,0,0,2.66181,0.72533,0.154744,0,
0.0126953,-0.00488281,0.00152588,0,0,0,0,0,0,0,0,2.61752,0.761822,0.146285,0,
0.00762939,-0.00256348,0.0100708,0,0,0,0,0,0,0,0,2.57864,0.72749,0.140338,0,
0.000183105,-0.00219727,0.0131226,0,0,0,0,0,0,0,0,2.63231,0.714804,0.139426,0,
-0.0032959,0.000366211,0.0088501,0,0,0,0,0,0,0,0,2.77518,0.712814,0.13845,0,
-0.00390625,0.00341797,0.0012207,0,0,0,0,0,0,0,0,2.87671,0.634559,0.132746,0,
-0.00482178,0.00372314,0.0146484,0,0,0,0,0,0,0,0,2.85672,0.592087,0.128218,0,
-0.0055542,0.00292969,0.0198364,0,0,0,0,0,0,0,0,2.91503,0.531269,0.123521,0,
-0.00726318,0.000305176,0.0012207,0,0,0,0,0,0,0,0,2.79409,0.570623,0.120257,0,
-0.00115967,0.00134277,-0.00793457,0,0,0,0,0,0,0,0,2.85255,0.588513,0.10828,0,
-0.000366211,-0.000488281,0.00488281,0,0,0,0,0,0,0,0,2.92104,0.559755,0.107606,0,
-0.00317383,-0.00341797,0.00396729,0,0,0,0,0,0,0,0,2.82616,0.561508,0.116164,0,
-0.0022583,-0.00341797,0,0,0,0,0,0,0,0,0,2.57776,0.609911,0.123854,0,
-0.00115967,-0.003479,-0.00732422,0,0,0,0,0,0,0,0,2.41412,0.64981,0.12551,0,
-0.00250244,-0.00292969,-0.00274658,0,0,0,0,0,0,0,0,2.61683,0.657125,0.117485,0,
-0.00482178,-0.00427246,-0.00762939,0,0,0,0,0,0,0,0,2.31397,0.66536,0.11052,0,
-0.00427246,-0.00366211,-0.0189209,0,0,0,0,0,0,0,0,1.96332,0.665244,0.105739,0,
-0.00537109,-0.00323486,-0.0134277,0,0,0,0,0,0,0,0,1.81084,0.707147,0.106501,0,
-0.000915527,-0.000793457,0.000610352,0,0,0,0,0,0,0,0,1.81884,0.67682,0.114123,0,
0,0.00115967,0.00640869,0,0,0,0,0,0,0,0,1.85395,0.734676,0.114388,0,
0.0020752,-0.000183105,0.000305176,0,0,0,0,0,0,0,0,1.82409,0.795782,0.109345,0,
0.00189209,-0.0012207,-0.00854492,0,0,0,0,0,0,0,0,1.95484,0.808079,0.104378,0,
0.00317383,-0.00341797,-0.00946045,0,0,0,0,0,0,0,0,2.02427,0.861677,0.0996289,0,
0.000732422,-0.00341797,-0.0170898,0,0,0,0,0,0,0,0,1.88468,0.967943,0.103744,0,
0.00408936,-0.00415039,-0.0250244,0,0,0,0,0,0,0,0,1.73823,1.00057,0.105552,0,
0.00549316,-0.0020752,-0.0253296,0,0,0,0,0,0,0,0,1.62811,1.13629,0.110794,0,
0.00268555,-0.000427246,-0.00427246,0,0,0,0,0,0,0,0,1.67485,1.1745,0.115287,0,
-0.00195312,0.000854492,-0.00305176,0,0,0,0,0,0,0,0,1.92439,1.15053,0.117255,0,
0.000183105,0.00158691,-0.0137329,0,0,0,0,0,0,0,0,2.33487,1.08199,0.109429,0,
0.000488281,0.0012207,-0.00427246,0,0,0,0,0,0,0,0,2.43108,1.08841,0.108365,0,
-0.00231934,-0.000976562,-0.000305176,0,0,0,0,0,0,0,0,2.34663,1.17201,0.108489,0,
-0.00134277,-0.00274658,-0.00732422,0,0,0,0,0,0,0,0,2.457,1.27926,0.108122,0,
0.00341797,-0.00305176,0.00305176,0,0,0,0,0,0,0,0,2.54293,1.316,0.111207,0,
0.00476074,-0.00494385,0.00457764,0,0,0,0,0,0,0,0,2.61638,1.32235,0.109109,0,
-6.10352E-05,-0.00604248,0.000915527,0,0,0,0,0,0,0,0,2.71036,1.30869,0.108145,0,
0.000915527,-0.00463867,-0.00244141,0,0,0,0,0,0,0,0,2.87687,1.32253,0.108353,0,
0.000793457,-0.0022583,-0.00854492,0,0,0,0,0,0,0,0,3.00552,1.33584,0.105214,0,
0.00152588,-0.0012207,-0.0109863,0,0,0,0,0,0,0,0,2.91333,1.3454,0.103902,0,
0.003479,-0.000976562,-0.00793457,0,0,0,0,0,0,0,0,2.9308,1.40177,0.107782,0,
0.013916,-0.00152588,0.00518799,0,0,0,0,0,0,0,0,3.20676,1.44163,0.107146,0,
0.0125732,-0.00292969,0.0088501,0,0,0,0,0,0,0,0,3.46922,1.4944,0.106018,0,
0.00848389,-0.00268555,0.0167847,0,0,0,0,0,0,0,0,3.56848,1.51957,0.106044,0,
0.00592041,-0.00219727,0.0119019,0,0,0,0,0,0,0,0,3.51049,1.51728,0.107265,0,
0.00854492,-0.000854492,-0.0195312,0,0,0,0,0,0,0,0,3.5494,1.45739,0.105984,0,
-0.000244141,-0.00195312,-0.0253296,0,0,0,0,0,0,0,0,3.5712,1.50525,0.107196,0,
-0.00482178,-0.00268555,-0.0170898,0,0,0,0,0,0,0,0,3.60138,1.53326,0.107626,0,
-0.00384521,-0.00177002,-0.00854492,0,0,0,0,0,0,0,0,3.65703,1.6169,0.108349,0,
-0.00726318,-0.00012207,-0.00244141,0,0,0,0,0,0,0,0,3.6026,1.66223,0.104437,0,
-0.0045166,0.00170898,0.0112915,0,0,0,0,0,0,0,0,3.39412,1.73981,0.103879,0,
-0.000854492,0.00292969,0.0250244,0,0,0,0,0,0,0,0,3.32655,1.73463,0.106517,0,
-0.0020752,0.00311279,0.0234985,0,0,0,0,0,0,0,0,3.29066,1.69177,0.103763,0,
0.00134277,0.00115967,0.00762939,0,0,0,0,0,0,0,0,3.29561,1.65297,0.093556,0,
0.012146,-0.000427246,0.00335693,0,0,0,0,0,0,0,0,3.39265,1.61576,0.0857188,0,
0.00445557,-0.00549316,0.00823975,0,0,0,0,0,0,0,0,3.31204,1.60278,0.0816403,0,
-0.00604248,-0.00872803,0.000915527,0,0,0,0,0,0,0,0,3.09565,1.66368,0.0865478,0,
-0.0137939,-0.00756836,-0.000915527,0,0,0,0,0,0,0,0,2.88008,1.6647,0.087494,0,
-0.00805664,-0.00469971,-0.00732422,0,0,0,0,0,0,0,0,2.72771,1.67432,0.0860165,0,
-6.10352E-05,-0.00457764,-0.00396729,0,0,0,0,0,0,0,0,2.70538,1.61744,0.0814989,0,
0.000793457,-0.00152588,-0.0115967,0,0,0,0,0,0,0,0,2.71658,1.6316,0.0805883,0,
0.00201416,0.00109863,-0.00793457,0,0,0,0,0,0,0,0,2.47398,1.59761,0.0854154,0,
0.00109863,0.00317383,0.000915527,0,0,0,0,0,0,0,0,2.34018,1.54517,0.0899057,0,
-0.0022583,0.00445557,0.00549316,0,0,0,0,0,0,0,0,2.18561,1.47831,0.0898347,0,
-0.00305176,0.00244141,0.00549316,0,0,0,0,0,0,0,0,2.15354,1.44579,0.0912208,0,
-0.00164795,0.0010376,-0.00640869,0,0,0,0,0,0,0,0,2.25038,1.46454,0.0947933,0,
0.000915527,-0.00146484,-0.0241089,0,0,0,0,0,0,0,0,2.42536,1.41225,0.10005,0,
0.00231934,-0.000488281,-0.022583,0,0,0,0,0,0,0,0,2.54753,1.31519,0.0960232,0,
0.00189209,-0.000610352,0.00213623,0,0,0,0,0,0,0,0,2.50368,1.19223,0.0973498,0,
-0.00372314,0.000549316,0.0137329,0,0,0,0,0,0,0,0,2.32933,1.1905,0.0981018,0,
-0.00390625,0.000183105,0.0250244,0,0,0,0,0,0,0,0,2.20706,1.14323,0.1011,0,
-0.0022583,-0.00286865,0.0195312,0,0,0,0,0,0,0,0,2.24329,1.14186,0.0988746,0,
-0.00170898,-0.0043335,0.015564,0,0,0,0,0,0,0,0,2.346,1.13059,0.0945931,0,
0.00317383,-0.00610352,0.00701904,0,0,0,0,0,0,0,0,2.20546,1.05472,0.0987284,0,
0.00244141,-0.0067749,-0.00793457,0,0,0,0,0,0,0,0,2.01357,1.00183,0.0979852,0,
-0.000183105,-0.00671387,-0.00640869,0,0,0,0,0,0,0,0,1.83947,1.01601,0.100411,0,
-0.00146484,-0.00524902,-0.0115967,0,0,0,0,0,0,0,0,1.75415,0.950948,0.097401,0,
-6.10352E-05,-0.00518799,-0.0137329,0,0,0,0,0,0,0,0,1.80675,0.937916,0.0943606,0,
0.00354004,-0.00305176,-0.0152588,0,0,0,0,0,0,0,0,1.78293,0.928943,0.0899683,0,
0.0055542,-0.00445557,-0.0210571,0,0,0,0,0,0,0,0,1.84927,0.945269,0.0922122,0,
0.00750732,-0.00274658,-0.0088501,0,0,0,0,0,0,0,0,1.86941,0.85265,0.0829313,0,
0.00579834,-0.00158691,-0.0241089,0,0,0,0,0,0,0,0,1.81279,0.798745,0.074127,0,
0.00628662,-0.00286865,-0.017395,0,0,0,0,0,0,0,0,1.71922,0.725798,0.076952,0,
0.0120239,-0.00274658,-0.00183105,0,0,0,0,0,0,0,0,1.67598,0.71566,0.0812169,0,
0.0169678,-0.00140381,0.00549316,0,0,0,0,0,0,0,0,1.85941,0.745119,0.0822173,0,
0.0102539,-0.000305176,0.010376,0,0,0,0,0,0,0,0,1.79251,0.699687,0.0808953,0,
0.00201416,0.00323486,0.0189209,0,0,0,0,0,0,0,0,1.74367,0.656042,0.0795059,0,
0.00146484,0.0055542,0.0228882,0,0,0,0,0,0,0,0,1.71912,0.637776,0.0882034,0,
-0.00140381,0.00415039,0.0338745,0,0,0,0,0,0,0,0,1.83236,0.67003,0.0910978,0,
-0.00164795,0.00378418,0.032959,0,0,0,0,0,0,0,0,1.85726,0.630775,0.0924185,0,
-0.00366211,0.00396729,0.020752,0,0,0,0,0,0,0,0,1.84229,0.627392,0.0955894,0,
-0.0055542,0.000366211,-0.012207,0,0,0,0,0,0,0,0,1.71704,0.699888,0.103685,0,
-0.00787354,-0.00128174,-0.0115967,0,0,0,0,0,0,0,0,1.72679,0.776694,0.110634,0,
-0.00708008,-0.00299072,-0.00427246,0,0,0,0,0,0,0,0,2.0526,0.855769,0.108126,0,
-0.0057373,-0.00378418,-0.0149536,0,0,0,0,0,0,0,0,2.21737,0.824347,0.106505,0,
-0.00286865,-0.00415039,-0.0213623,0,0,0,0,0,0,0,0,2.26293,0.82358,0.103704,0,
-0.000732422,-0.00506592,-0.0149536,0,0,0,0,0,0,0,0,2.42413,0.897696,0.102694,0,
-0.0010376,-0.0022583,-0.00335693,0,0,0,0,0,0,0,0,2.4281,0.993645,0.0992013,0,
-0.000976562,-0.00152588,0.00244141,0,0,0,0,0,0,0,0,2.48103,1.09369,0.101741,0,
0.00109863,0.000244141,0.0125122,0,0,0,0,0,0,0,0,2.45978,1.17073,0.0999823,0,
0.00213623,-0.000976562,0.00335693,0,0,0,0,0,0,0,0,2.35303,1.19943,0.103512,0,
0.00299072,-0.00268555,-0.0296021,0,0,0,0,0,0,0,0,2.36273,1.22499,0.108357,0,
0.00549316,-0.00494385,-0.0366211,0,0,0,0,0,0,0,0,2.38756,1.33373,0.107354,0,
0.00445557,-0.00494385,-0.0112915,0,0,0,0,0,0,0,0,2.50349,1.44783,0.106686,0,
0.00152588,-0.00518799,-0.00671387,0,0,0,0,0,0,0,0,2.46358,1.4764,0.101582,0,
0.00128174,-0.00518799,0.0012207,0,0,0,0,0,0,0,0,2.42088,1.48763,0.0996684,0,
-0.00134277,-0.00457764,0.00732422,0,0,0,0,0,0,0,0,2.41564,1.52576,0.0975672,0,
-0.00341797,-0.0022583,0.00823975,0,0,0,0,0,0,0,0,2.45011,1.51244,0.0879977,0,
-0.00195312,-0.0012207,0.017395,0,0,0,0,0,0,0,0,2.41858,1.51758,0.0845395,0,
-0.0012207,-0.00152588,0.0137329,0,0,0,0,0,0,0,0,2.37329,1.52031,0.092877,0,
-0.00140381,-0.000488281,-0.00244141,0,0,0,0,0,0,0,0,2.3032,1.56813,0.089426,0,
0.00238037,-0.000488281,-0.0311279,0,0,0,0,0,0,0,0,2.34851,1.57357,0.0846758,0,
0.00341797,-0.000488281,-0.0402832,0,0,0,0,0,0,0,0,2.26734,1.60484,0.0844083,0,
0.00231934,-0.00134277,-0.0570679,0,0,0,0,0,0,0,0,2.15652,1.64342,0.0824046,0,
0.0010376,-0.00195312,-0.0473022,0,0,0,0,0,0,0,0,2.18398,1.6757,0.0791234,0,
0.00512695,-0.00115967,-0.00976562,0,0,0,0,0,0,0,0,2.18464,1.68471,0.0815564,0,
0.00177002,-0.00109863,0.00335693,0,0,0,0,0,0,0,0,2.09693,1.65872,0.0830106,0,
-0.00292969,-0.00219727,0.00854492,0,0,0,0,0,0,0,0,2.1056,1.65131,0.0852181,0,
-0.00238037,-0.0022583,0.0164795,0,0,0,0,0,0,0,0,2.03563,1.55806,0.0888627,0,
-0.000671387,-0.00195312,0.0183105,0,0,0,0,0,0,0,0,1.97789,1.51307,0.0866148,0,
0.00360107,-0.000793457,0.0408936,0,0,0,0,0,0,0,0,2.06884,1.48303,0.0939754,0,
0.000244141,0.00158691,0.0549316,0,0,0,0,0,0,0,0,2.07937,1.48712,0.100443,0,
0.00933838,0.00244141,0.0335693,0,0,0,0,0,0,0,0,2.03668,1.48115,0.105539,0,
0.0149536,-6.10352E-05,-0.00640869,0,0,0,0,0,0,0,0,2.17091,1.46148,0.108772,0,
0.0108032,0.00128174,-0.0088501,0,0,0,0,0,0,0,0,2.16933,1.45775,0.108682,0,
0.00866699,-0.0012207,-0.00549316,0,0,0,0,0,0,0,0,2.18154,1.49181,0.120816,0,
0.00280762,-0.00335693,0.00396729,0,0,0,0,0,0,0,0,2.03792,1.52943,0.136753,0,
0.0043335,-0.00323486,0.0106812,0,0,0,0,0,0,0,0,1.93353,1.59148,0.156954,0,
0.0065918,-0.00384521,0.0012207,0,0,0,0,0,0,0,0,1.85391,1.5874,0.168288,0,
0.000793457,-0.00372314,0.00244141,0,0,0,0,0,0,0,0,1.76805,1.6145,0.163879,0,
-0.000427246,-0.00354004,-0.00579834,0,0,0,0,0,0,0,0,1.79046,1.56681,0.170526,0,
-0.00653076,-0.00360107,-0.00610352,0,0,0,0,0,0,0,0,1.85079,1.49784,0.177232,0,
-0.0108643,-0.00213623,-0.00579834,0,0,0,0,0,0,0,0,2.02024,1.42213,0.181198,0,
-0.00744629,-0.00311279,-0.00854492,0,0,0,0,0,0,0,0,2.01183,1.33741,0.191391,0,
-0.00689697,-0.00408936,-0.0112915,0,0,0,0,0,0,0,0,1.87339,1.3444,0.206055,0,
-0.00842285,-0.00280762,-0.00518799,0,0,0,0,0,0,0,0,1.85303,1.31582,0.211291,0,
-0.00689697,-0.00427246,-0.00579834,0,0,0,0,0,0,0,0,1.90195,1.26961,0.212163,0,
0.00183105,-0.00439453,-0.00305176,0,0,0,0,0,0,0,0,1.92221,1.17867,0.215193,0,
-0.00268555,-0.00177002,0.00366211,0,0,0,0,0,0,0,0,2.00508,1.25591,0.221277,0,
-0.00250244,0.00134277,0.00854492,0,0,0,0,0,0,0,0,2.06273,1.27156,0.229291,0,
-0.00012207,0.003479,0.0137329,0,0,0,0,0,0,0,0,2.00842,1.30973,0.216546,0,
0.00231934,0.00360107,0.0195312,0,0,0,0,0,0,0,0,2.05062,1.23908,0.211409,0,
0.00445557,0.00244141,0.0161743,0,0,0,0,0,0,0,0,1.98237,1.1142,0.201831,0,
0.00653076,0.00012207,0.0164795,0,0,0,0,0,0,0,0,1.86006,1.03884,0.195803,0,
0.00213623,0.00177002,0.0152588,0,0,0,0,0,0,0,0,1.78836,0.99516,0.199442,0,
0.000915527,0.00231934,0.010376,0,0,0,0,0,0,0,0,1.83365,0.998562,0.192086,0,
0.0020752,0.000183105,0.0131226,0,0,0,0,0,0,0,0,1.96146,0.971124,0.182171,0,
0.003479,-0.0012207,0.0128174,0,0,0,0,0,0,0,0,1.95165,0.909275,0.171325,0,
0.00415039,-0.000732422,0.00488281,0,0,0,0,0,0,0,0,1.93693,0.927112,0.161175,0,
-0.00195312,-0.00183105,-0.00915527,0,0,0,0,0,0,0,0,1.96371,0.933946,0.156176,0,
0.000549316,-0.00335693,-0.00946045,0,0,0,0,0,0,0,0,2.04,0.907557,0.147849,0,
0.00292969,-0.00518799,-0.0143433,0,0,0,0,0,0,0,0,2.08838,0.896559,0.146843,0,
-0.000732422,-0.00604248,-0.0228882,0,0,0,0,0,0,0,0,2.03054,0.881868,0.164184,0,
-0.00500488,-0.00701904,-0.0131226,0,0,0,0,0,0,0,0,1.90697,0.875507,0.175514,0,
-0.00799561,-0.00640869,-0.0134277,0,0,0,0,0,0,0,0,2.00881,0.915184,0.168592,0,
-0.00170898,-0.00549316,-0.0219727,0,0,0,0,0,0,0,0,1.9546,0.939615,0.162297,0,
0.000305176,-0.00286865,-0.0195312,0,0,0,0,0,0,0,0,1.88498,0.911606,0.159138,0,
-0.000976562,-0.000793457,-0.0189209,0,0,0,0,0,0,0,0,1.91552,0.942758,0.156404,0,
0.00476074,-0.00115967,-0.00915527,0,0,0,0,0,0,0,0,1.99712,0.901666,0.145266,0,
0.00866699,-0.000366211,-0.00305176,0,0,0,0,0,0,0,0,2.05834,0.916737,0.149138,0,
0.00878906,-0.00109863,-0.00640869,0,0,0,0,0,0,0,0,2.21315,0.871449,0.182699,0,
0.00775146,-0.00262451,0.00762939,0,0,0,0,0,0,0,0,2.11166,0.946522,0.206377,0,
0.00463867,-0.00238037,0.00762939,0,0,0,0,0,0,0,0,2.15145,0.996147,0.208618,0,
0.00390625,-0.00354004,0.00610352,0,0,0,0,0,0,0,0,2.05248,1.10638,0.20706,0,
0.00341797,-0.00286865,-0.00946045,0,0,0,0,0,0,0,0,2.04222,1.13827,0.211673,0,
0.00219727,-6.10352E-05,-0.0186157,0,0,0,0,0,0,0,0,1.9855,1.09634,0.210051,0,
0.00299072,-0.000427246,-0.0195312,0,0,0,0,0,0,0,0,2.0198,1.06071,0.206812,0,
0.00158691,-0.00268555,-0.0247192,0,0,0,0,0,0,0,0,2.16046,1.08801,0.211793,0,
0.0098877,-0.00317383,-0.012207,0,0,0,0,0,0,0,0,2.24706,1.08935,0.219782,0,
0.0160522,-0.00274658,-0.00579834,0,0,0,0,0,0,0,0,2.38137,1.11998,0.232842,0,
0.00585938,-0.00170898,-0.0012207,0,0,0,0,0,0,0,0,2.35033,1.17269,0.23143,0,
-0.00317383,-0.000488281,0.00732422,0,0,0,0,0,0,0,0,2.36552,1.1509,0.223433,0,
-0.0142822,0.00250244,0.000305176,0,0,0,0,0,0,0,0,2.34734,1.10113,0.209675,0,
-0.0148926,0.0032959,0.0128174,0,0,0,0,0,0,0,0,2.38394,1.06218,0.2014,0,
-0.0109253,0.00311279,0.0012207,0,0,0,0,0,0,0,0,2.46539,0.99571,0.199349,0,
-0.00616455,0.000488281,0.000305176,0,0,0,0,0,0,0,0,2.59272,0.959693,0.198814,0,
-0.00488281,0.0010376,-0.015564,0,0,0,0,0,0,0,0,2.67627,1.00003,0.201214,0,
-0.00457764,-0.00152588,-0.0268555,0,0,0,0,0,0,0,0,2.59856,0.965271,0.200962,0,
-0.0043335,-0.00268555,-0.0158691,0,0,0,0,0,0,0,0,2.52505,0.907394,0.200785,0,
-0.000732422,-0.00396729,0,0,0,0,0,0,0,0,0,2.4441,0.903863,0.195605,0,
0.00390625,-0.00439453,-0.00701904,0,0,0,0,0,0,0,0,2.37565,0.948159,0.171602,0,
0.00585938,-0.00372314,-0.00183105,0,0,0,0,0,0,0,0,2.33382,0.897945,0.145567,0,
0.0043335,-0.0032959,0.00732422,0,0,0,0,0,0,0,0,2.28756,0.856884,0.1495,0,
0.00238037,-0.000244141,0.0115967,0,0,0,0,0,0,0,0,2.32777,0.733558,0.159057,0,
0.00140381,0.0010376,0.012207,0,0,0,0,0,0,0,0,2.32911,0.718026,0.157921,0,
0.00463867,-0.0010376,0.00732422,0,0,0,0,0,0,0,0,2.31873,0.730633,0.15533,0,
0.00280762,0.000427246,0.00854492,0,0,0,0,0,0,0,0,2.18164,0.69583,0.148835,0,
-0.00170898,0.00213623,0.00671387,0,0,0,0,0,0,0,0,1.9835,0.668298,0.134096,0,
-0.00610352,0.00164795,-0.0180054,0,0,0,0,0,0,0,0,1.91159,0.603375,0.127287,0,
-0.00231934,-0.000610352,-0.0256348,0,0,0,0,0,0,0,0,1.75012,0.547583,0.116491,0,
-0.000549316,-0.0032959,-0.0228882,0,0,0,0,0,0,0,0,1.80278,0.555805,0.119301,0,
-0.00134277,-0.00524902,-0.0143433,0,0,0,0,0,0,0,0,1.74435,0.656541,0.121425,0,
-0.0020752,-0.00415039,-0.00579834,0,0,0,0,0,0,0,0,1.65375,0.763101,0.110803,0,
-0.00140381,-0.00238037,0.010376,0,0,0,0,0,0,0,0,1.67195,0.830639,0.102037,0,
-0.000915527,-0.0043335,0.0198364,0,0,0,0,0,0,0,0,1.42828,0.882983,0.0969676,0,
0.00146484,-0.00592041,0.015564,0,0,0,0,0,0,0,0,1.32007,0.90509,0.0969435,0,
0.00402832,-0.00366211,0.00427246,0,0,0,0,0,0,0,0,1.33097,0.995342,0.096404,0,
0.00390625,-0.00463867,-0.00183105,0,0,0,0,0,0,0,0,1.34122,1.10968,0.094983,0,
0.0020752,-0.00610352,-0.0119019,0,0,0,0,0,0,0,0,1.38653,1.18024,0.0946664,0,
0.00415039,-0.0055542,-0.0140381,0,0,0,0,0,0,0,0,1.47935,1.14244,0.0891463,0,
0.00512695,-0.0045166,-0.000610352,0,0,0,0,0,0,0,0,1.41434,1.12287,0.0830009,0,
0.00708008,-0.00463867,0.00183105,0,0,0,0,0,0,0,0,1.47702,1.11486,0.0843104,0,
0.00952148,-0.00280762,0.00701904,0,0,0,0,0,0,0,0,1.6181,1.13985,0.0847931,0,
0.00457764,-0.00158691,0.0149536,0,0,0,0,0,0,0,0,1.62682,1.19956,0.0759224,0,
0.0012207,-0.00158691,-0.00488281,0,0,0,0,0,0,0,0,1.66063,1.17778,0.0691537,0,
-0.000671387,-0.000793457,-0.012207,0,0,0,0,0,0,0,0,1.70345,1.14014,0.073833,0,
-0.00152588,-0.000915527,-0.0177002,0,0,0,0,0,0,0,0,1.81107,1.18797,0.0890804,0,
-0.00128174,-0.00213623,-0.0192261,0,0,0,0,0,0,0,0,1.91718,1.23924,0.0980361,0,
-0.000854492,-0.00238037,-0.00152588,0,0,0,0,0,0,0,0,2.28965,1.33798,0.0949794,0,
0.00299072,-0.00128174,0.0128174,0,0,0,0,0,0,0,0,2.51589,1.387,0.0916856,0,
0.00457764,-0.000610352,0.0164795,0,0,0,0,0,0,0,0,2.4775,1.34187,0.0950346,0,
0.00445557,-0.0022583,0.017395,0,0,0,0,0,0,0,0,2.54976,1.31668,0.0978534,0,
0.00189209,-0.00201416,0.0112915,0,0,0,0,0,0,0,0,2.67149,1.35545,0.108311,0,
0.00231934,-0.000183105,0.00976562,0,0,0,0,0,0,0,0,2.61258,1.47185,0.111734,0,
0.00274658,-0.000732422,0.00152588,0,0,0,0,0,0,0,0,2.68269,1.53239,0.123728,0,
0.0119629,-0.000549316,0.00244141,0,0,0,0,0,0,0,0,2.68745,1.5971,0.123086,0,
0.00469971,6.10352E-05,-0.0012207,0,0,0,0,0,0,0,0,2.53427,1.465,0.125551,0,
-0.00311279,0,0.00915527,0,0,0,0,0,0,0,0,2.56129,1.36088,0.133175,0,
-0.00585938,0.000671387,0.0100708,0,0,0,0,0,0,0,0,2.47374,1.38954,0.135221,0,
-0.0055542,0.0010376,0.0119019,0,0,0,0,0,0,0,0,2.35101,1.49076,0.141532,0,
-0.00323486,0.000183105,0.00549316,0,0,0,0,0,0,0,0,2.32404,1.60799,0.146651,0,
0.00317383,0.00170898,0,0,0,0,0,0,0,0,0,2.3588,1.71801,0.147602,0,
0.00146484,0.000610352,0.0134277,0,0,0,0,0,0,0,0,2.29542,1.69252,0.14031,0,
-0.0020752,6.10352E-05,0.0180054,0,0,0,0,0,0,0,0,2.26477,1.64476,0.143951,0,
-0.00683594,0.0010376,0.00701904,0,0,0,0,0,0,0,0,2.32414,1.6734,0.150721,0,
-0.00909424,0.00280762,-0.0106812,0,0,0,0,0,0,0,0,2.37607,1.69116,0.152367,0,
-0.00512695,0.00341797,-0.0131226,0,0,0,0,0,0,0,0,2.31287,1.73814,0.149919,0,
0.000732422,0.00311279,-0.010376,0,0,0,0,0,0,0,0,2.49262,1.79487,0.142613,0,
-0.00219727,0.00170898,-0.0106812,0,0,0,0,0,0,0,0,2.39356,1.80898,0.143625,0,
-0.0078125,0.00274658,-0.00274658,0,0,0,0,0,0,0,0,2.4502,1.80734,0.156374,0,
-0.00762939,0.00183105,0.0012207,0,0,0,0,0,0,0,0,2.49788,1.79213,0.160307,0,
-0.00292969,-0.00109863,0.00244141,0,0,0,0,0,0,0,0,2.37329,1.73568,0.159398,0,
-0.00384521,-0.00177002,-0.00946045,0,0,0,0,0,0,0,0,2.36912,1.60771,0.147304,0,
-0.00213623,-0.00494385,-0.00640869,0,0,0,0,0,0,0,0,2.41437,1.47572,0.145913,0,
-0.00170898,-0.00598145,-0.00854492,0,0,0,0,0,0,0,0,2.45238,1.40762,0.141671,0,
0.000793457,-0.00775146,-0.0204468,0,0,0,0,0,0,0,0,2.53906,1.30978,0.151758,0,
0.000793457,-0.00860596,-0.0112915,0,0,0,0,0,0,0,0,2.66061,1.34172,0.161057,0,
0.00177002,-0.00543213,-0.00549316,0,0,0,0,0,0,0,0,2.63709,1.35391,0.154372,0,
0.000549316,-0.00292969,0.00640869,0,0,0,0,0,0,0,0,2.63421,1.23712,0.155123,0,
0.00012207,-0.00244141,-0.000610352,0,0,0,0,0,0,0,0,2.67168,1.10667,0.147921,0,
0.000366211,-0.0022583,-0.00732422,0,0,0,0,0,0,0,0,2.59172,0.96819,0.140881,0,
0.00238037,-0.00286865,-0.00549316,0,0,0,0,0,0,0,0,2.54652,0.897519,0.134737,0,
0.00482178,-0.00305176,-0.0152588,0,0,0,0,0,0,0,0,2.47746,0.910371,0.135272,0,
0.00671387,-0.00164795,-0.0271606,0,0,0,0,0,0,0,0,2.43096,0.908823,0.137215,0,
0.00842285,-0.00268555,-0.017395,0,0,0,0,0,0,0,0,2.4123,0.909392,0.134907,0,
0.00286865,-0.00341797,-0.0152588,0,0,0,0,0,0,0,0,2.50528,0.906763,0.13951,0,
0.00140381,-0.00292969,0.00183105,0,0,0,0,0,0,0,0,2.57745,0.850004,0.140527,0,
0.0022583,-0.00305176,0.00183105,0,0,0,0,0,0,0,0,2.39829,0.762401,0.139218,0,
0.00189209,-0.00354004,0.0012207,0,0,0,0,0,0,0,0,2.13985,0.669961,0.142151,0,
-0.00146484,-0.00543213,-0.00152588,0,0,0,0,0,0,0,0,1.89099,0.63466,0.141466,0,
-0.00372314,-0.00415039,-0.00152588,0,0,0,0,0,0,0,0,1.80915,0.651351,0.144391,0,
-0.000976562,-0.00537109,-0.0158691,0,0,0,0,0,0,0,0,1.82071,0.627515,0.146312,0,
0.00262451,-0.00531006,-0.0131226,0,0,0,0,0,0,0,0,1.8049,0.628966,0.145721,0,
0.00158691,-0.00439453,-0.0112915,0,0,0,0,0,0,0,0,1.8226,0.583774,0.146726,0,
-0.00244141,-0.0020752,-0.00823975,0,0,0,0,0,0,0,0,2.08977,0.536327,0.146106,0,
-0.000549316,-0.00134277,-0.000610352,0,0,0,0,0,0,0,0,2.09407,0.536952,0.144014,0,
-0.00152588,-0.000305176,-0.00152588,0,0,0,0,0,0,0,0,2.00834,0.508609,0.130983,0,
0.000366211,0.000244141,0.00518799,0,0,0,0,0,0,0,0,2.03151,0.503606,0.132789,0,
0.00378418,0.00183105,0.00244141,0,0,0,0,0,0,0,0,2.1211,0.512825,0.136408,0,
0.00476074,0.0022583,0.000610352,0,0,0,0,0,0,0,0,2.22895,0.505527,0.135232,0,
0.0127563,0.0022583,0.0106812,0,0,0,0,0,0,0,0,2.24387,0.54561,0.135858,0,
0.0113525,0.00244141,0.0134277,0,0,0,0,0,0,0,0,2.29588,0.515999,0.137249,0,
0.00421143,0.000427246,0.00488281,0,0,0,0,0,0,0,0,2.30902,0.558542,0.136802,0,
-0.000305176,-0.000549316,-0.000915527,0,0,0,0,0,0,0,0,2.38492,0.605059,0.130467,0,
-0.00457764,6.10352E-05,-0.00823975,0,0,0,0,0,0,0,0,2.31567,0.584617,0.12753,0,
-0.00445557,-0.00170898,-0.00427246,0,0,0,0,0,0,0,0,2.11125,0.569604,0.112444,0,
-0.00262451,-0.00408936,-0.00274658,0,0,0,0,0,0,0,0,2.15891,0.562627,0.100359,0,
-0.00354004,-0.00445557,-0.00457764,0,0,0,0,0,0,0,0,2.17403,0.542371,0.0994995,0,
-0.00518799,-0.0032959,0.00823975,0,0,0,0,0,0,0,0,2.11199,0.601596,0.0912634,0,
-0.00579834,-0.0022583,0.00701904,0,0,0,0,0,0,0,0,2.1635,0.640398,0.0786919,0,
0.000732422,-0.00195312,0.00366211,0,0,0,0,0,0,0,0,2.12436,0.695813,0.0665886,0,
0.00610352,-0.00292969,-0.012207,0,0,0,0,0,0,0,0,2.04878,0.753668,0.0597736,0,
0.00427246,-0.00317383,-0.0253296,0,0,0,0,0,0,0,0,2.004,0.782632,0.0582653,0,
-0.00219727,-0.00170898,-0.0131226,0,0,0,0,0,0,0,0,1.86936,0.822583,0.0516794,0,
-0.00170898,-0.00012207,-0.0106812,0,0,0,0,0,0,0,0,1.59314,0.93069,0.0492347,0,
-0.00280762,0.00128174,0.00213623,0,0,0,0,0,0,0,0,1.52149,1.05729,0.0419784,0,
-0.00408936,0.000305176,-0.0088501,0,0,0,0,0,0,0,0,1.55879,1.12379,0.0414324,0,
-0.000183105,0.00244141,-0.0143433,0,0,0,0,0,0,0,0,1.52661,1.11333,0.0462684,0,
0.00787354,0.00274658,-0.00610352,0,0,0,0,0,0,0,0,1.45182,1.11081,0.042219,0,
0.00305176,0.0022583,0.00854492,0,0,0,0,0,0,0,0,1.34769,1.17325,0.0467869,0,
0.00531006,0.0022583,0.0195312,0,0,0,0,0,0,0,0,1.45852,1.17439,0.0500021,0,
0.00653076,0.00280762,0.0231934,0,0,0,0,0,0,0,0,1.47294,1.21615,0.0552655,0,
0.0032959,0.00177002,0.0283813,0,0,0,0,0,0,0,0,1.45094,1.26451,0.0698315,0,
0.000366211,-0.000549316,0.022583,0,0,0,0,0,0,0,0,1.49148,1.27163,0.0794387,0,
0.00390625,0.00152588,0.0170898,0,0,0,0,0,0,0,0,1.5382,1.26719,0.0810757,0,
0.0101318,0.000549316,0.00671387,0,0,0,0,0,0,0,0,1.59388,1.26748,0.0881729,0,
0.00714111,-6.10352E-05,0.00366211,0,0,0,0,0,0,0,0,1.42982,1.23501,0.0939725,0,
0.00109863,-0.00268555,-0.0109863,0,0,0,0,0,0,0,0,1.30234,1.20476,0.104367,0,
0.00158691,-0.00396729,-0.0186157,0,0,0,0,0,0,0,0,1.29448,1.22572,0.109071,0,
-0.00427246,-0.0057373,-0.0115967,0,0,0,0,0,0,0,0,1.26957,1.22569,0.111957,0,
-0.0108032,-0.00793457,-0.012207,0,0,0,0,0,0,0,0,1.31054,1.25574,0.117212,0,
-0.0129395,-0.00726318,-0.000610352,0,0,0,0,0,0,0,0,1.34953,1.30013,0.116729,0,
-0.0098877,-0.00695801,-0.00244141,0,0,0,0,0,0,0,0,1.25977,1.32201,0.124963,0,
-0.00671387,-0.0067749,-0.0119019,0,0,0,0,0,0,0,0,1.32161,1.278,0.126773,0,
-0.0043335,-0.00585938,-0.0210571,0,0,0,0,0,0,0,0,1.33536,1.19769,0.12373,0,
-0.00653076,-0.00366211,-0.0164795,0,0,0,0,0,0,0,0,1.433,1.13953,0.123835,0,
-0.000732422,-0.00317383,-0.0112915,0,0,0,0,0,0,0,0,1.44981,1.12271,0.125572,0,
0.00708008,-0.0020752,-0.0158691,0,0,0,0,0,0,0,0,1.40671,1.16579,0.12168,0,
0.00134277,-0.000854492,-0.0158691,0,0,0,0,0,0,0,0,1.42574,1.18869,0.121582,0,
-0.00170898,-0.000427246,-0.0128174,0,0,0,0,0,0,0,0,1.7022,1.18212,0.118746,0,
-0.00262451,-0.0012207,-0.0161743,0,0,0,0,0,0,0,0,1.83289,1.2139,0.114839,0,
-0.00354004,-0.0010376,-0.015564,0,0,0,0,0,0,0,0,1.83826,1.18591,0.11097,0,
0.000244141,-0.000732422,0.000915527,0,0,0,0,0,0,0,0,1.85246,1.07694,0.0984255,0,
0.00518799,-0.00238037,0.00274658,0,0,0,0,0,0,0,0,1.89051,1.03466,0.0886687,0,
0.00476074,-0.00292969,0.00396729,0,0,0,0,0,0,0,0,1.85394,1.03217,0.0865485,0,
0.00421143,-0.00366211,0.0106812,0,0,0,0,0,0,0,0,1.88637,1.10761,0.0815599,0,
0.00909424,-0.00292969,0.0125122,0,0,0,0,0,0,0,0,1.99108,1.22143,0.0754031,0,
0.00415039,-0.00280762,-0.00152588,0,0,0,0,0,0,0,0,2.14562,1.29623,0.0682481,0,
-0.000427246,-0.000549316,0.00335693,0,0,0,0,0,0,0,0,2.23835,1.23343,0.0653463,0,
0.00585938,0.0012207,0.00732422,0,0,0,0,0,0,0,0,2.28702,1.19497,0.0667438,0,
0.00518799,0.000976562,-0.010376,0,0,0,0,0,0,0,0,2.42873,1.10375,0.0597159,0,
-0.00469971,0.000732422,-0.00671387,0,0,0,0,0,0,0,0,2.53028,1.00783,0.0622254,0,
-0.00952148,0.000549316,0.00335693,0,0,0,0,0,0,0,0,2.53489,0.95767,0.0553564,0,
-0.0140991,0.00164795,0.0100708,0,0,0,0,0,0,0,0,2.53125,0.976448,0.0552666,0,
-0.0123291,0.00128174,-0.00579834,0,0,0,0,0,0,0,0,2.48891,0.9978,0.055415,0,
-0.00811768,0,-0.00152588,0,0,0,0,0,0,0,0,2.38728,0.923675,0.0590827,0,
-0.00579834,0.0012207,-0.00488281,0,0,0,0,0,0,0,0,2.34833,0.931102,0.0668288,0,
-0.00146484,0.00238037,-0.0228882,0,0,0,0,0,0,0,0,2.45204,0.880586,0.0709754,0,
0,0.00262451,-0.00244141,0,0,0,0,0,0,0,0,2.41694,0.830518,0.0692629,0,
0.00311279,0.000732422,0.00732422,0,0,0,0,0,0,0,0,2.19456,0.785979,0.0680941,0,
0.00494385,0.00146484,0.0125122,0,0,0,0,0,0,0,0,2.07219,0.722723,0.0686679,0,
0.0065918,-0.00183105,0.0183105,0,0,0,0,0,0,0,0,2.05616,0.681408,0.0749351,0,
0.00518799,-0.00445557,0.0271606,0,0,0,0,0,0,0,0,2.1673,0.722026,0.0816628,0,
0.00256348,-0.00439453,0.0299072,0,0,0,0,0,0,0,0,2.03386,0.708049,0.0941108,0,
0.00299072,-0.00219727,0.0222778,0,0,0,0,0,0,0,0,2.17328,0.694656,0.0982663,0,
0.00134277,-0.0022583,0.0167847,0,0,0,0,0,0,0,0,2.29288,0.69811,0.100483,0,
0.00109863,-0.00341797,0.00946045,0,0,0,0,0,0,0,0,2.32512,0.617394,0.101805,0,
-0.00164795,-0.00585938,0.0012207,0,0,0,0,0,0,0,0,2.41756,0.562883,0.110548,0,
0.000915527,-0.00396729,0.000915527,0,0,0,0,0,0,0,0,2.44331,0.561531,0.1193,0,
0.00256348,-0.00317383,-0.012207,0,0,0,0,0,0,0,0,2.43774,0.620061,0.127394,0,
0.000610352,-0.00140381,-0.0189209,0,0,0,0,0,0,0,0,2.58157,0.651828,0.129897,0,
0.00177002,-0.000183105,-0.0164795,0,0,0,0,0,0,0,0,2.71629,0.680214,0.133188,0,
-0.00280762,0.000488281,0,0,0,0,0,0,0,0,0,2.86481,0.686126,0.137167,0,
-0.00177002,0.000915527,0.00274658,0,0,0,0,0,0,0,0,2.82241,0.695697,0.135419,0,
-0.000732422,-0.000915527,-0.00366211,0,0,0,0,0,0,0,0,2.81419,0.643482,0.134647,0,
-0.00244141,-0.00256348,-0.0152588,0,0,0,0,0,0,0,0,2.96534,0.654999,0.134207,0,
-0.00396729,-0.00488281,-0.0296021,0,0,0,0,0,0,0,0,3.18052,0.626165,0.128831,0,
0.000671387,-0.00469971,-0.0183105,0,0,0,0,0,0,0,0,3.1094,0.666485,0.123654,0,
0.0108032,-0.003479,-0.00701904,0,0,0,0,0,0,0,0,3.1085,0.731875,0.121962,0,
0.00891113,-0.00378418,0.0012207,0,0,0,0,0,0,0,0,3.14959,0.755924,0.12877,0,
0.00915527,-0.00360107,0.0177002,0,0,0,0,0,0,0,0,3.23547,0.757963,0.137332,0,
0.00622559,-0.00415039,0.0128174,0,0,0,0,0,0,0,0,3.22561,0.793878,0.134382,0,
0.00439453,-0.00439453,-0.0131226,0,0,0,0,0,0,0,0,3.15445,0.755186,0.128647,0,
0.00415039,-0.00653076,-0.0164795,0,0,0,0,0,0,0,0,3.12562,0.801411,0.116812,0,
0.00518799,-0.00360107,-0.00366211,0,0,0,0,0,0,0,0,2.95319,0.892477,0.114729,0,
-0.000671387,-0.00140381,0.00396729,0,0,0,0,0,0,0,0,2.84487,0.914459,0.115595,0,
-0.0057373,-0.00158691,0.00549316,0,0,0,0,0,0,0,0,2.72624,0.977744,0.116949,0,
-0.00488281,0.000244141,0.00823975,0,0,0,0,0,0,0,0,2.49623,0.994346,0.112333,0,
-0.00738525,0.000671387,0.00946045,0,0,0,0,0,0,0,0,2.58972,0.976639,0.107841,0,
-0.00634766,-0.000427246,0.00183105,0,0,0,0,0,0,0,0,2.79078,0.946053,0.0968176,0,
-0.00585938,0.000610352,0.00823975,0,0,0,0,0,0,0,0,2.59713,0.961437,0.0977839,0,
-0.00512695,0.00170898,0.0140381,0,0,0,0,0,0,0,0,2.33602,0.981428,0.0911595,0,
-0.00738525,0.000976562,0.0146484,0,0,0,0,0,0,0,0,2.39452,1.04148,0.0898274,0,
-0.0065918,0.00152588,0.00976562,0,0,0,0,0,0,0,0,2.58047,1.06093,0.0888652,0,
-0.00378418,-0.000732422,0.0012207,0,0,0,0,0,0,0,0,2.64701,1.05632,0.087852,0,
-0.00140381,-0.00128174,-0.00366211,0,0,0,0,0,0,0,0,2.61565,1.04601,0.0880774,0,
-0.00140381,-0.0020752,-0.00244141,0,0,0,0,0,0,0,0,2.55413,1.02892,0.0965979,0,
-0.00402832,-0.00305176,-0.000915527,0,0,0,0,0,0,0,0,2.61446,1.00087,0.0978635,0,
-0.000305176,-0.0020752,0.000305176,0,0,0,0,0,0,0,0,2.61593,0.95451,0.103103,0,
-0.0010376,-0.00177002,0.00335693,0,0,0,0,0,0,0,0,2.60834,0.953368,0.0968128,0,
0.000793457,-0.00256348,-0.00640869,0,0,0,0,0,0,0,0,2.64323,1.00184,0.0898136,0,
0.00201416,-0.0045166,-0.0234985,0,0,0,0,0,0,0,0,2.73451,1.06254,0.0883793,0,
0.00750732,-0.0057373,-0.0448608,0,0,0,0,0,0,0,0,2.75481,1.14803,0.0914751,0,
0.00744629,-0.00769043,-0.0338745,0,0,0,0,0,0,0,0,2.81095,1.11577,0.0966174,0,
0.0120239,-0.00549316,-0.00610352,0,0,0,0,0,0,0,0,2.7683,1.01505,0.0954096,0,
0.0153198,-0.00524902,0.00579834,0,0,0,0,0,0,0,0,2.79336,0.9151,0.0901566,0,
0.0105591,-0.00189209,0.0137329,0,0,0,0,0,0,0,0,2.88078,0.865792,0.0874514,0,
0.00585938,0.00146484,0.00274658,0,0,0,0,0,0,0,0,2.86965,0.854874,0.0797319,0,
0.00415039,0,-0.00366211,0,0,0,0,0,0,0,0,2.7704,0.886957,0.0802706,0,
-0.000427246,-0.00164795,-0.017395,0,0,0,0,0,0,0,0,2.58523,0.854354,0.0825081,0,
-0.00488281,-0.00256348,-0.015564,0,0,0,0,0,0,0,0,2.48244,0.856586,0.0849656,0,
-0.00543213,-0.00354004,-0.0180054,0,0,0,0,0,0,0,0,2.47237,0.924024,0.0838112,0,
-0.00482178,-0.0043335,-0.0204468,0,0,0,0,0,0,0,0,2.39819,0.959021,0.0806297,0,
-0.00421143,-0.00561523,-0.0402832,0,0,0,0,0,0,0,0,2.2646,1.01422,0.0866681,0,
-0.00354004,-0.00744629,-0.0274658,0,0,0,0,0,0,0,0,2.14183,1.0877,0.0888001,0,
0.0022583,-0.00543213,-0.010376,0,0,0,0,0,0,0,0,2.08634,1.0699,0.0891572,0,
-0.000732422,-0.00268555,0.00274658,0,0,0,0,0,0,0,0,2.00392,1.11449,0.0815905,0,
0.00622559,-0.000488281,0.0112915,0,0,0,0,0,0,0,0,2.00268,1.1511,0.0796813,0,
0.0269165,-0.000854492,0.0158691,0,0,0,0,0,0,0,0,1.98428,1.209,0.0804354,0,
0.020874,-0.000671387,0.0201416,0,0,0,0,0,0,0,0,1.96474,1.25395,0.0927871,0,
0.00476074,0.0022583,0.0137329,0,0,0,0,0,0,0,0,1.7062,1.25116,0.0985955,0,
0.00646973,0.00158691,0.00640869,0,0,0,0,0,0,0,0,1.54506,1.16934,0.101077,0,
0.00268555,0.0012207,-0.00549316,0,0,0,0,0,0,0,0,1.508,1.16116,0.105669,0,
-0.00628662,0.000305176,0.00274658,0,0,0,0,0,0,0,0,1.52525,1.17526,0.110326,0,
-0.00830078,0,0.00762939,0,0,0,0,0,0,0,0,1.50853,1.19771,0.115068,0,
-0.00817871,-0.00134277,0.0164795,0,0,0,0,0,0,0,0,1.47633,1.19786,0.120132,0,
-0.00665283,-0.000610352,0.0125122,0,0,0,0,0,0,0,0,1.37157,1.2488,0.118252,0,
-0.00610352,-0.00140381,0.0158691,0,0,0,0,0,0,0,0,1.50352,1.29896,0.118232,0,
-0.010498,-0.000976562,0.0170898,0,0,0,0,0,0,0,0,1.50216,1.30108,0.110663,0,
-0.00921631,-0.00128174,0.0180054,0,0,0,0,0,0,0,0,1.47555,1.32247,0.114372,0,
-0.00628662,-0.00115967,0.00915527,0,0,0,0,0,0,0,0,1.46261,1.29748,0.115922,0,
-0.00726318,-0.000610352,0.00335693,0,0,0,0,0,0,0,0,1.47876,1.18336,0.120126,0,
-0.0055542,0.000305176,-0.000610352,0,0,0,0,0,0,0,0,1.40184,1.06542,0.11964,0,
-0.00311279,0,-0.0152588,0,0,0,0,0,0,0,0,1.42201,0.980794,0.114663,0,
-0.00195312,0.000671387,-0.0183105,0,0,0,0,0,0,0,0,1.60564,0.912875,0.112171,0,
-0.00140381,0.00445557,-0.0146484,0,0,0,0,0,0,0,0,1.71458,0.90876,0.115081,0,
0,0.00415039,-0.00610352,0,0,0,0,0,0,0,0,1.61406,0.877866,0.117382,0,
0.00402832,0.00134277,0.0119019,0,0,0,0,0,0,0,0,1.59498,0.836808,0.121044,0,
0.00512695,0.00158691,0.020752,0,0,0,0,0,0,0,0,1.7597,0.771275,0.120267,0,
0.00817871,0.00219727,0.0265503,0,0,0,0,0,0,0,0,1.84415,0.703736,0.113634,0,
0.00811768,-0.000488281,0.0228882,0,0,0,0,0,0,0,0,2.03944,0.682311,0.117709,0,
0.00634766,-0.00134277,0.0253296,0,0,0,0,0,0,0,0,2.02799,0.704133,0.128891,0,
0.00354004,-0.000915527,0.0109863,0,0,0,0,0,0,0,0,2.05052,0.663426,0.128756,0,
0.00512695,-0.0045166,-0.017395,0,0,0,0,0,0,0,0,2.02154,0.655647,0.121776,0,
0.00622559,-0.00463867,-0.0411987,0,0,0,0,0,0,0,0,2.26564,0.691207,0.116918,0,
0.00964355,-0.00518799,-0.03479,0,0,0,0,0,0,0,0,2.42621,0.739601,0.123852,0,
0.00231934,-0.00378418,-0.0286865,0,0,0,0,0,0,0,0,2.58772,0.757229,0.133327,0,
-0.000366211,-0.00311279,-0.0170898,0,0,0,0,0,0,0,0,2.61577,0.79159,0.143525,0,
-0.00311279,-0.00500488,-0.00946045,0,0,0,0,0,0,0,0,2.50675,0.859108,0.150049,0,
-0.00653076,-0.00469971,-0.00305176,0,0,0,0,0,0,0,0,2.5534,0.874081,0.14814,0,
-0.00750732,-0.00390625,0.00305176,0,0,0,0,0,0,0,0,2.75698,0.839987,0.141458,0,
-0.00341797,-0.00408936,0.0112915,0,0,0,0,0,0,0,0,2.92005,0.863077,0.142238,0,
-0.00146484,-0.00372314,0.0125122,0,0,0,0,0,0,0,0,3.07313,0.978637,0.161051,0,
0.00286865,-0.00274658,0.00976562,0,0,0,0,0,0,0,0,3.19497,1.09687,0.170332,0,
-0.00231934,-0.000915527,0.00488281,0,0,0,0,0,0,0,0,3.14792,1.2139,0.176725,0,
-0.00244141,-0.000610352,0.000610352,0,0,0,0,0,0,0,0,3.12089,1.26682,0.171365,0,
-0.00140381,0.000915527,0.00274658,0,0,0,0,0,0,0,0,3.14645,1.24214,0.168699,0,
0.000305176,-0.000305176,0.00732422,0,0,0,0,0,0,0,0,3.57275,1.23772,0.168507,0,
0.000549316,-0.00109863,0.00579834,0,0,0,0,0,0,0,0,3.85384,1.24202,0.167429,0,
0.00439453,-0.00146484,0.00854492,0,0,0,0,0,0,0,0,3.90631,1.282,0.162251,0,
0.00860596,-0.00262451,0.0146484,0,0,0,0,0,0,0,0,4.01166,1.31383,0.151988,0,
0.00946045,-0.00335693,0.00244141,0,0,0,0,0,0,0,0,4.06597,1.39644,0.139873,0,
0.00750732,-0.00158691,-0.00305176,0,0,0,0,0,0,0,0,4.08521,1.49797,0.133658,0,
0.00292969,-0.0012207,-0.000915527,0,0,0,0,0,0,0,0,4.28515,1.56834,0.131438,0,
0.00598145,-0.0012207,0.0088501,0,0,0,0,0,0,0,0,4.38727,1.57154,0.130633,0,
0.0134888,0.000305176,0.00671387,0,0,0,0,0,0,0,0,4.37154,1.51956,0.127815,0,
0.0117188,-0.00286865,-0.00854492,0,0,0,0,0,0,0,0,4.34886,1.51397,0.121776,0,
0.00689697,-0.00183105,-0.0204468,0,0,0,0,0,0,0,0,4.38387,1.49438,0.11304,0,
0.00115967,-0.000366211,-0.0299072,0,0,0,0,0,0,0,0,4.45165,1.49016,0.112257,0,
-0.0055542,-0.000183105,-0.0134277,0,0,0,0,0,0,0,0,4.37382,1.52855,0.107821,0,
-0.00860596,-0.000610352,0.00823975,0,0,0,0,0,0,0,0,4.20457,1.62094,0.106823,0,
-0.00842285,-0.00177002,-0.00701904,0,0,0,0,0,0,0,0,4.16092,1.64025,0.102255,0,
-0.0102539,-0.00231934,-0.0222778,0,0,0,0,0,0,0,0,4.12294,1.56251,0.0830884,0,
-0.00732422,-0.00262451,-0.00976562,0,0,0,0,0,0,0,0,4.08921,1.46932,0.076869,0,
-0.00494385,-0.00323486,-0.00152588,0,0,0,0,0,0,0,0,4.03456,1.46494,0.0785471,0,
-0.00244141,-0.00390625,-0.00335693,0,0,0,0,0,0,0,0,4.03623,1.52186,0.0843443,0,
0.00439453,-0.00213623,0,0,0,0,0,0,0,0,0,4.09534,1.55025,0.0817952,0,
0.00402832,6.10352E-05,0.00305176,0,0,0,0,0,0,0,0,3.91118,1.60229,0.0769782,0,
-0.000915527,0.00134277,0.00701904,0,0,0,0,0,0,0,0,3.59472,1.6542,0.0791546,0,
-0.00280762,0.00134277,0.0109863,0,0,0,0,0,0,0,0,3.37453,1.61885,0.0880069,0,
-0.00512695,-0.000244141,0.00640869,0,0,0,0,0,0,0,0,3.16963,1.5536,0.105203,0,
0.0012207,-0.000915527,0.00854492,0,0,0,0,0,0,0,0,3.22061,1.43944,0.120467,0,
0.00872803,-0.000671387,0.00244141,0,0,0,0,0,0,0,0,3.18847,1.34178,0.121636,0,
0.00738525,0.00115967,0.0119019,0,0,0,0,0,0,0,0,2.98155,1.2697,0.129877,0,
0.00213623,0.000610352,0.0125122,0,0,0,0,0,0,0,0,2.83691,1.24931,0.14266,0,
6.10352E-05,-0.000305176,0.020752,0,0,0,0,0,0,0,0,2.59921,1.26432,0.15205,0,
-0.00164795,-0.000976562,0.0119019,0,0,0,0,0,0,0,0,2.45619,1.16045,0.162537,0,
-0.00439453,-0.00152588,0.0109863,0,0,0,0,0,0,0,0,2.24941,1.10823,0.17409,0,
-0.00604248,-0.00482178,0.00183105,0,0,0,0,0,0,0,0,2.23815,1.01497,0.176123,0,
-0.00585938,-0.00476074,-0.0125122,0,0,0,0,0,0,0,0,2.29359,0.916551,0.177213,0,
